63
126
189
252
315
378
441
504
567
630
693
756
819
882
945
1008
1071
1134
1197
1260
1323
1386
1449
1512
1575
1638
1701
1764
1827
1890
1953
2016
2079
2142
2205
2268
2331
2394
2457
2520
2583
2646
2709
2772
2835
2898
2961
3024
3087
3150
3213
3276
3339
3402
3465
3528
3591
3654
3717
3780
3843
3906
3969
4032
4095
4158
4221
4284
4347
4410
4473
4536
4599
4662
4725
4788
4851
4914
4977
5040
5103
5166
5229
5292
5355
5418
5481
5544
5607
5670
5733
5796
5859
5922
5935
5946
5952
5961
5969
5976
5983
5968
5972
5978
5983
5989
5998
6003
6008
6021
6027
6039
6047
6053
6062
6072
6082
6093
6103
6109
6118
6130
6138
6154
6163
6176
6190
6206
6219
6236
6254
6263
6273
6283
6289
6295
6298
6303
6309
6324
6328
6336
6336
6336
6334
6335
6332
6328
6328
6325
6322
6320
6320
6318
6315
6316
6314
6314
6312
6311
6305
6302
6295
6289
6281
6274
6265
6258
6248
6241
6233
6227
6217
6208
6198
6184
6167
6145
6130
6124
6127
6129
6134
6138
6138
6138
6137
6133
6130
6119
6113
6105
6098
6089
6082
6085
6087
6089
6097
6103
6110
6114
6121
6131
6135
6140
6145
6149
6151
6158
6167
6181
6201
6222
6251
6281
6313
6344
6369
6397
6417
6440
6462
6486
6500
6521
6537
6553
6572
6592
6612
6634
6655
6681
6705
6730
6753
6784
6812
6845
6874
6907
6940
6978
7010
7045
7081
7117
7152
7178
7206
7233
7263
7291
7318
7351
7382
7413
7451
7483
7522
7555
7590
7620
7649
7679
7717
7749
7779
7812
7847
7877
7906
7931
7951
7970
7988
8007
8027
8036
8039
8039
8031
8041
8060
8076
8093
8108
8132
8162
8185
8241
8304
8367
8430
8493
8556
8619
8682
8745
8808
8871
8934
8997
9060
9123
9186
9249
9312
9375
9438
9501
9437
9500
9563
9626
9689
9752
9815
9878
9941
10004
10067
10130
10193
10256
10319
10382
10445
10508
10571
10634
10697
10760
10823
10886
10949
11012
11075
11138
11201
11264
11327
11390
11453
11516
11579
11642
11705
11768
11831
11894
11957
12020
12083
12146
12209
12160
12096
12032
11968
11904
11840
11776
11712
11648
11650
11709
11772
11835
11898
11961
12024
12087
12150
12213
12267
12281
12272
12255
12253
12260
12285
12315
12336
12336
12330
12322
12310
12276
12242
12208
12180
12159
12144
12127
12104
12095
12100
12122
12152
12203
12266
12329
12392
12403
12394
12389
12395
12433
12459
12479
12484
12513
12535
12515
12488
12458
12407
12351
12292
12261
12264
12250
12228
12201
12220
12277
12336
12399
12462
12520
12556
12608
12671
12707
12737
12791
12758
12694
12630
12566
12605
12668
12731
12794
12857
12920
12983
13046
13109
13172
13235
13298
13361
13424
13487
13550
13613
13549
13485
13421
13357
13293
13229
13165
13101
13037
12973
12909
12845
12782
12729
12699
12644
12707
12734
12724
12720
12721
12718
12721
12718
12712
12710
12698
12684
12668
12657
12634
12608
12583
12560
12550
12533
12520
12511
12498
12482
12473
12461
12455
12438
12416
12398
12379
12362
12349
12333
12321
12311
12296
12286
12265
12240
12210
12192
12175
12151
12130
12105
12091
12082
12089
12073
12067
12069
12036
12015
12078
12078
12065
12055
12043
12030
12020
12014
12014
12009
12005
12004
12007
12006
12008
12015
12022
12018
11999
11970
11939
11920
11916
11916
11910
11899
11882
11863
11852
11840
11829
11823
11815
11798
11787
11778
11771
11760
11752
11744
11737
11729
11716
11708
11700
11698
11696
11699
11700
11704
11717
11738
11756
11748
11730
11715
11719
11739
11776
11809
11849
11873
11881
11884
11883
11918
11939
11922
11897
11863
11815
11756
11692
11639
11595
11531
11467
11403
11394
11363
11339
11324
11311
11288
11272
11253
11237
11223
11206
11195
11188
11189
11188
11185
11185
11173
11164
11148
11141
11130
11114
11097
11061
10997
10933
10893
10906
10916
10893
10870
10846
10838
10828
10813
10801
10780
10727
10741
10688
10655
10647
10645
10631
10619
10609
10600
10586
10579
10577
10567
10568
10567
10579
10610
10652
10672
10645
10618
10611
10618
10626
10617
10601
10588
10584
10583
10580
10571
10558
10546
10531
10523
10517
10503
10492
10474
10466
10451
10445
10444
10447
10445
10435
10419
10406
10409
10423
10409
10395
10390
10385
10382
10378
10368
10353
10349
10340
10337
10328
10329
10343
10363
10376
10359
10322
10280
10245
10237
10242
10236
10217
10153
10089
10074
10067
10082
10090
10092
10081
10057
10035
10013
9999
9989
9983
9979
9974
9969
9953
9957
9961
9957
9948
9943
9935
9929
9929
9922
9928
9937
9947
9933
9912
9901
9896
9886
9886
9877
9867
9856
9845
9835
9829
9822
9808
9793
9778
9762
9753
9751
9756
9754
9733
9711
9687
9664
9659
9643
9633
9636
9646
9641
9644
9650
9704
9767
9808
9752
9688
9624
9560
9545
9574
9577
9577
9579
9595
9589
9565
9550
9534
9503
9479
9437
9450
9426
9403
9370
9337
9305
9278
9259
9240
9216
9191
9167
9149
9136
9125
9125
9126
9116
9113
9109
9103
9098
9094
9101
9100
9090
9070
9053
9032
9011
8987
8965
8932
8923
8912
8902
8883
8845
8806
8809
8785
8790
8830
8889
8909
8883
8843
8829
8856
8873
8860
8837
8816
8813
8823
8867
8930
8931
8879
8837
8801
8767
8744
8729
8716
8700
8706
8760
8773
8729
8702
8697
8733
8745
8683
8626
8608
8603
8602
8569
8552
8549
8572
8568
8555
8542
8547
8572
8575
8571
8550
8516
8474
8452
8436
8419
8421
8424
8411
8413
8414
8405
8393
8396
8396
8397
8380
8334
8286
8278
8261
8236
8217
8200
8175
8156
8146
8125
8081
8017
7953
7894
7887
7884
7867
7837
7814
7799
7785
7766
7752
7742
7742
7759
7779
7764
7731
7695
7678
7689
7705
7712
7713
7717
7715
7707
7700
7701
7708
7708
7713
7723
7740
7752
7758
7763
7774
7793
7798
7784
7761
7752
7756
7759
7752
7737
7716
7704
7712
7709
7700
7692
7689
7688
7668
7630
7618
7554
7490
7497
7538
7539
7515
7568
7608
7597
7660
7723
7786
7849
7912
7975
8038
8101
8164
8227
8290
8313
8268
8216
8184
8131
8077
8029
7984
7933
7901
7878
7851
7819
7802
7791
7771
7760
7756
7759
7774
7799
7826
7854
7881
7900
7917
7931
7944
7957
7948
7938
7937
7953
7990
8028
8041
8031
8014
8011
8006
7996
7979
7959
7966
7976
7949
7912
7877
7854
7846
7818
7785
7781
7791
7795
7732
7695
7697
7711
7712
7657
7620
7616
7618
7601
7579
7581
7599
7602
7627
7660
7703
7738
7758
7773
7790
7786
7762
7737
7729
7732
7743
7727
7663
7599
7535
7471
7407
7343
7316
7329
7363
7414
7474
7527
7589
7646
7688
7734
7787
7839
7902
7965
8028
8091
8154
8217
8218
8188
8191
8208
8230
8243
8253
8260
8271
8288
8313
8353
8405
8468
8531
8594
8657
8720
8783
8846
8909
8958
8989
9023
9062
9099
9137
9165
9191
9213
9239
9258
9286
9316
9342
9362
9372
9384
9399
9418
9448
9469
9480
9473
9464
9477
9502
9538
9567
9589
9594
9591
9583
9575
9569
9560
9555
9554
9559
9566
9575
9591
9606
9617
9625
9633
9651
9670
9688
9705
9720
9731
9740
9752
9752
9762
9771
9770
9765
9763
9763
9763
9763
9760
9760
9759
9756
9754
9752
9749
9751
9753
9753
9757
9755
9752
9749
9749
9748
9746
9743
9742
9740
9744
9747
9745
9746
9746
9748
9747
9749
9746
9745
9742
9737
9730
9725
9715
9709
9704
9698
9690
9676
9657
9634
9615
9594
9573
9554
9546
9535
9526
9506
9491
9469
9456
9442
9425
9409
9391
9385
9373
9357
9345
9343
9354
9365
9377
9382
9390
9404
9414
9415
9405
9390
9367
9339
9326
9314
9295
9288
9276
9271
9300
9341
9375
9392
9415
9443
9470
9483
9483
9476
9468
9461
9460
9457
9467
9470
9476
9479
9484
9483
9486
9489
9492
9495
9502
9509
9512
9508
9494
9472
9452
9429
9407
9390
9388
9395
9406
9430
9470
9523
9574
9611
9624
9622
9614
9612
9605
9593
9578
9569
9559
9561
9565
9570
9570
9590
9608
9629
9636
9625
9603
9585
9582
9585
9592
9604
9611
9616
9618
9626
9642
9666
9692
9721
9742
9758
9780
9810
9850
9887
9923
9948
9959
9965
9962
9941
9901
9854
9829
9811
9794
9765
9731
9688
9669
9679
9722
9758
9780
9798
9825
9857
9884
9917
9938
9962
9976
9988
9986
9970
9964
9967
9984
9988
9924
9860
9796
9732
9668
9604
9540
9476
9412
9372
9337
9342
9360
9377
9382
9375
9362
9339
9319
9306
9303
9302
9295
9291
9286
9280
9270
9261
9272
9285
9296
9309
9312
9307
9300
9281
9253
9205
9150
9119
9106
9094
9078
9073
9067
9045
9021
9009
8999
9004
9008
9001
8992
8986
8989
8992
9001
9016
9027
9024
9013
8999
8973
8954
8935
8919
8908
8896
8880
8870
8872
8871
8861
8841
8786
8762
8708
8687
8674
8649
8614
8587
8570
8559
8544
8534
8524
8516
8511
8500
8499
8505
8519
8544
8565
8579
8575
8585
8582
8567
8554
8548
8544
8534
8509
8486
8469
8454
8450
8456
8467
8484
8495
8492
8486
8455
8419
8377
8346
8339
8336
8353
8365
8386
8396
8408
8423
8427
8429
8424
8414
8403
8395
8405
8443
8506
8569
8632
8695
8758
8784
8809
8811
8800
8788
8766
8741
8716
8698
8681
8665
8635
8604
8573
8544
8538
8539
8544
8536
8532
8550
8552
8551
8551
8557
8566
8571
8578
8575
8573
8575
8573
8559
8525
8499
8486
8479
8464
8445
8437
8432
8430
8428
8432
8444
8470
8514
8577
8637
8595
8601
8623
8684
8717
8722
8696
8643
8694
8757
8808
8800
8789
8778
8779
8772
8754
8738
8716
8693
8680
8671
8659
8666
8665
8675
8684
8691
8701
8705
8707
8702
8702
8708
8718
8731
8741
8746
8741
8731
8720
8708
8688
8673
8656
8664
8651
8633
8599
8564
8552
8562
8564
8564
8568
8574
8582
8588
8596
8598
8596
8587
8591
8590
8580
8571
8557
8546
8530
8514
8504
8497
8498
8499
8496
8491
8493
8492
8492
8487
8481
8478
8474
8468
8462
8463
8466
8463
8466
8463
8462
8461
8455
8451
8449
8441
8434
8418
8409
8398
8381
8363
8344
8327
8312
8307
8306
8311
8308
8310
8310
8310
8291
8289
8288
8290
8298
8297
8289
8289
8281
8276
8279
8285
8291
8294
8299
8306
8311
8318
8327
8331
8328
8327
8326
8322
8323
8322
8317
8316
8305
8291
8283
8277
8279
8285
8300
8307
8311
8315
8312
8295
8272
8247
8215
8198
8171
8170
8155
8150
8156
8170
8186
8192
8198
8205
8201
8192
8182
8188
8190
8197
8195
8206
8220
8238
8245
8241
8233
8214
8178
8144
8096
8054
7991
7932
7880
7920
7961
7970
7973
7993
7977
7938
7896
7898
7916
7941
7954
7963
7977
7975
7988
8011
8031
8051
8076
8097
8113
8127
8140
8145
8146
8152
8174
8195
8200
8200
8200
8196
8187
8189
8185
8186
8198
8213
8242
8279
8327
8379
8419
8454
8478
8496
8503
8481
8452
8424
8387
8365
8356
8354
8343
8336
8333
8332
8315
8287
8254
8217
8197
8184
8181
8180
8186
8189
8191
8200
8210
8246
8289
8322
8345
8355
8357
8351
8339
8334
8341
8353
8367
8383
8398
8414
8425
8433
8436
8436
8430
8426
8424
8427
8435
8437
8435
8425
8399
8383
8364
8348
8324
8306
8285
8262
8242
8229
8220
8211
8208
8211
8215
8208
8213
8227
8242
8254
8269
8288
8301
8299
8286
8279
8264
8253
8238
8220
8207
8195
8189
8183
8194
8214
8225
8238
8230
8225
8212
8200
8198
8192
8187
8169
8156
8148
8137
8126
8106
8094
8074
8064
8065
8072
8080
8088
8094
8101
8122
8138
8151
8159
8153
8143
8122
8104
8090
8077
8069
8076
8093
8121
8145
8172
8193
8220
8240
8253
8271
8283
8292
8298
8295
8285
8276
8273
8278
8284
8302
8314
8331
8342
8345
8353
8355
8362
8374
8380
8387
8396
8407
8418
8434
8457
8476
8501
8523
8546
8560
8571
8578
8584
8593
8601
8606
8613
8616
8617
8622
8629
8634
8636
8644
8649
8652
8658
8658
8658
8653
8656
8657
8666
8664
8659
8649
8631
8612
8602
8594
8590
8585
8582
8581
8586
8587
8591
8592
8591
8584
8572
8557
8541
8528
8511
8485
8463
8441
8422
8413
8411
8433
8468
8506
8539
8565
8578
8589
8604
8615
8624
8625
8633
8641
8646
8656
8667
8664
8661
8660
8668
8680
8690
8704
8721
8730
8730
8737
8735
8737
8738
8747
8751
8764
8783
8806
8832
8861
8893
8917
8929
8939
8947
8948
8947
8946
8941
8945
8949
8953
8966
8987
9009
9033
9055
9072
9090
9097
9104
9097
9087
9078
9071
9064
9059
9060
9064
9067
9064
9068
9078
9077
9072
9076
9074
9079
9077
9089
9088
9084
9068
9046
9025
9008
8996
8993
8999
9002
9010
9019
9024
9037
9041
9042
9034
9029
9029
9023
9015
9010
9012
9020
9029
9039
9054
9064
9069
9062
9053
9042
9029
9019
9017
9020
9026
9042
9061
9076
9084
9080
9067
9040
9017
8990
8964
8942
8920
8896
8881
8875
8874
8873
8882
8884
8877
8872
8863
8855
8845
8838
8831
8827
8825
8827
8823
8797
8776
8761
8749
8732
8711
8695
8686
8688
8696
8698
8690
8677
8667
8668
8681
8687
8674
8650
8622
8590
8568
8542
8530
8519
8505
8496
8482
8472
8463
8462
8456
8444
8432
8419
8407
8397
8388
8376
8372
8373
8390
8403
8433
8462
8486
8507
8523
8545
8566
8571
8546
8518
8494
8475
8452
8434
8418
8409
8401
8427
8455
8493
8538
8576
8601
8612
8606
8590
8569
8539
8508
8480
8460
8460
8463
8472
8485
8503
8531
8564
8572
8574
8580
8602
8613
8628
8634
8647
8654
8658
8660
8661
8662
8677
8699
8723
8738
8759
8761
8766
8767
8767
8764
8748
8714
8652
8588
8524
8460
8396
8332
8268
8204
8140
8076
8012
7948
7884
7820
7756
7692
7628
7575
7570
7569
7575
7586
7608
7629
7655
7682
7706
7729
7792
7855
7852
7852
7915
7951
7951
7977
8010
8022
8041
8068
8090
8108
8130
8155
8176
8197
8215
8226
8232
8234
8253
8262
8248
8222
8185
8158
8139
8125
8115
8112
8106
8106
8115
8123
8127
8135
8140
8134
8119
8091
8062
8030
7996
7984
7975
7972
7973
7966
7955
7958
7956
7954
7948
7942
7932
7924
7932
7942
7954
7971
8001
8018
8025
8012
7989
7970
7948
7931
7914
7899
7886
7881
7885
7890
7896
7898
7898
7896
7894
7900
7909
7934
7950
7968
7977
7979
7978
7976
7972
7958
7938
7921
7912
7909
7907
7896
7887
7875
7869
7873
7887
7918
7955
7985
8030
8059
8077
8101
8124
8157
8181
8196
8211
8227
8233
8237
8234
8224
8208
8193
8184
8167
8157
8141
8136
8132
8135
8136
8158
8191
8227
8258
8281
8296
8307
8302
8281
8253
8235
8217
8206
8206
8201
8199
8201
8210
8231
8256
8296
8326
8353
8375
8389
8408
8413
8408
8404
8385
8373
8355
8344
8337
8332
8339
8344
8358
8368
8383
8390
8397
8398
8400
8398
8407
8424
8451
8473
8497
8512
8529
8547
8560
8570
8571
8571
8565
8555
8547
8537
8532
8528
8529
8525
8533
8531
8516
8497
8483
8476
8471
8457
8448
8435
8435
8419
8416
8419
8404
8407
8400
8385
8369
8348
8319
8307
8293
8285
8275
8266
8266
8266
8264
8274
8298
8331
8365
8397
8418
8426
8419
8412
8400
8398
8397
8394
8403
8419
8435
8459
8475
8491
8504
8513
8500
8480
8459
8442
8431
8433
8418
8399
8382
8357
8338
8321
8298
8284
8266
8260
8249
8241
8230
8229
8232
8239
8249
8278
8306
8330
8344
8347
8351
8340
8326
8299
8266
8236
8192
8148
8092
8028
7964
7900
7836
7847
7895
7893
7900
7904
7879
7849
7830
7795
7774
7785
7782
7764
7735
7699
7668
7652
7637
7614
7608
7596
7569
7550
7527
7513
7501
7496
7494
7492
7493
7493
7495
7509
7526
7543
7551
7555
7561
7571
7574
7578
7590
7605
7621
7642
7681
7711
7735
7746
7746
7754
7751
7742
7735
7717
7705
7690
7668
7659
7660
7661
7671
7668
7671
7666
7667
7659
7654
7646
7628
7611
7598
7590
7582
7568
7559
7559
7558
7563
7575
7588
7597
7607
7620
7620
7616
7612
7609
7600
7589
7583
7570
7550
7534
7520
7506
7503
7498
7484
7474
7465
7457
7458
7473
7502
7523
7537
7526
7509
7492
7475
7464
7452
7438
7434
7433
7445
7466
7501
7544
7587
7616
7627
7631
7619
7603
7596
7587
7575
7571
7573
7570
7570
7571
7574
7588
7597
7601
7615
7599
7566
7534
7520
7509
7492
7478
7456
7449
7444
7442
7405
7341
7297
7300
7239
7175
7111
7047
6983
6919
6855
6791
6727
6663
6599
6535
6514
6487
6449
6432
6430
6448
6468
6500
6522
6500
6464
6486
6506
6519
6556
6619
6682
6745
6808
6871
6934
6997
7060
7123
7186
7249
7312
7375
7438
7501
7564
7627
7690
7753
7816
7879
7942
8005
8059
7995
7931
7867
7803
7739
7675
7611
7547
7483
7448
7410
7385
7369
7365
7374
7403
7453
7516
7579
7642
7705
7768
7831
7880
7872
7847
7846
7842
7853
7882
7916
7901
7840
7805
7821
7846
7861
7862
7851
7834
7812
7788
7776
7772
7780
7798
7804
7795
7803
7823
7832
7813
7791
7772
7758
7746
7740
7736
7738
7735
7732
7720
7724
7720
7716
7722
7724
7721
7733
7736
7739
7737
7734
7725
7714
7700
7666
7627
7589
7572
7557
7531
7520
7518
7512
7501
7485
7462
7432
7411
7411
7443
7477
7502
7479
7431
7381
7338
7317
7312
7312
7313
7327
7343
7353
7342
7311
7293
7280
7273
7258
7242
7229
7225
7230
7233
7225
7221
7218
7207
7194
7180
7160
7137
7107
7079
7059
7048
7035
7022
7010
6994
6977
6957
6940
6924
6905
6880
6862
6848
6836
6824
6816
6804
6794
6784
6774
6766
6757
6746
6742
6745
6737
6732
6718
6707
6700
6698
6705
6719
6738
6743
6731
6719
6709
6703
6712
6724
6745
6758
6755
6751
6757
6763
6781
6810
6837
6865
6902
6934
6933
6925
6950
6982
7024
7072
7118
7158
7196
7233
7270
7303
7320
7327
7358
7383
7411
7401
7337
7297
7274
7210
7223
7222
7220
7199
7150
7086
7022
6958
6905
6880
6853
6811
6775
6772
6753
6737
6720
6708
6691
6670
6645
6650
6642
6616
6594
6586
6574
6556
6538
6524
6506
6496
6484
6480
6464
6455
6445
6434
6424
6415
6411
6397
6384
6376
6368
6360
6355
6351
6360
6373
6385
6380
6374
6364
6355
6352
6350
6342
6340
6334
6319
6308
6297
6292
6288
6280
6272
6261
6227
6224
6227
6218
6233
6242
6240
6226
6213
6202
6193
6188
6183
6166
6154
6168
6198
6225
6234
6228
6221
6213
6208
6204
6196
6186
6178
6174
6170
6168
6161
6145
6129
6113
6091
6073
6068
6069
6081
6089
6088
6094
6094
6065
6036
6013
6011
6019
6030
6047
6067
6080
6087
6087
6107
6135
6162
6178
6188
6211
6240
6265
6288
6299
6311
6342
6389
6452
6515
6578
6641
6704
6767
6830
6893
6956
7019
7082
7145
7208
7248
7186
7122
7065
7003
6941
6891
6870
6864
6862
6876
6897
6900
6921
6984
7047
7110
7173
7236
7299
7362
7425
7488
7551
7614
7677
7740
7803
7866
7929
7992
8055
8118
8181
8244
8307
8370
8433
8496
8559
8622
8685
8748
8811
8874
8937
9000
9063
9035
8992
8951
8908
8863
8811
8773
8743
8711
8700
8716
8736
8761
8776
8786
8819
8835
8771
8707
8643
8579
8515
8495
8491
8486
8487
8488
8495
8502
8509
8520
8526
8527
8535
8564
8571
8570
8565
8556
8553
8508
8487
8480
8472
8464
8470
8487
8495
8460
8457
8471
8479
8488
8492
8482
8477
8464
8439
8418
8390
8379
8374
8380
8401
8417
8427
8442
8457
8479
8499
8510
8500
8498
8494
8499
8499
8508
8515
8526
8524
8530
8547
8573
8615
8658
8685
8711
8723
8734
8748
8764
8767
8762
8768
8766
8759
8753
8740
8728
8739
8750
8771
8795
8820
8849
8876
8903
8918
8930
8937
8931
8930
8933
8948
8973
8993
9017
9035
9054
9072
9093
9114
9131
9142
9149
9153
9146
9139
9127
9121
9122
9127
9135
9145
9161
9178
9193
9213
9228
9241
9254
9259
9263
9265
9268
9267
9264
9273
9276
9281
9295
9308
9322
9331
9333
9330
9327
9326
9325
9322
9320
9322
9319
9321
9327
9325
9329
9324
9320
9309
9301
9291
9287
9286
9289
9286
9292
9306
9317
9330
9341
9348
9356
9363
9368
9366
9364
9371
9375
9379
9386
9389
9389
9387
9390
9393
9397
9399
9405
9414
9412
9399
9406
9416
9407
9396
9381
9363
9336
9316
9297
9273
9266
9260
9251
9250
9255
9254
9255
9261
9256
9266
9265
9261
9260
9251
9242
9236
9228
9229
9218
9193
9165
9138
9119
9097
9074
9064
9044
9043
9057
9078
9074
9054
9033
9007
8986
8970
8948
8934
8927
8921
8913
8913
8916
8929
8945
8967
8978
8986
8985
8987
8982
8977
8977
8983
9000
9030
9057
9081
9088
9091
9094
9099
9102
9106
9105
9089
9076
9057
9041
9024
9014
9008
9006
9000
8996
8990
8988
8987
8988
8982
8983
8983
8983
8977
8969
8959
8956
8958
8967
8971
8974
8981
8986
8989
9000
9007
9027
9049
9067
9064
9053
9040
9020
8996
8973
8954
8924
8902
8886
8875
8853
8838
8824
8827
8834
8837
8860
8870
8883
8881
8881
8875
8866
8867
8880
8908
8929
8951
8978
9004
9029
9043
9055
9052
9048
9040
9031
9025
9019
9029
9032
9040
9059
9081
9095
9103
9114
9104
9097
9090
9083
9077
9082
9077
9056
9040
9030
9025
9002
9003
8990
8991
8989
8975
8947
8920
8915
8851
8787
8723
8659
8595
8531
8467
8403
8339
8275
8211
8147
8083
8019
7955
7891
7827
7763
7699
7635
7571
7507
7459
7449
7440
7423
7388
7381
7368
7352
7334
7331
7321
7322
7327
7319
7315
7310
7312
7311
7308
7307
7314
7323
7332
7352
7379
7406
7427
7439
7469
7481
7417
7353
7289
7294
7357
7420
7473
7524
7587
7650
7713
7776
7839
7902
7947
7966
7985
7966
7910
7873
7856
7831
7819
7816
7790
7795
7790
7753
7705
7671
7658
7642
7636
7622
7602
7575
7570
7574
7575
7567
7552
7534
7520
7507
7495
7478
7466
7457
7440
7400
7359
7335
7329
7326
7323
7291
7253
7217
7224
7240
7250
7235
7207
7177
7155
7135
7108
7073
7048
7030
7028
7020
7010
7011
7018
7018
7008
6999
6994
6987
6975
6951
6926
6917
6914
6912
6913
6921
6931
6934
6939
6950
6971
6984
6988
7004
7037
7071
7091
7098
7101
7107
7102
7081
7051
7024
7001
6991
7014
7052
7058
7052
7053
7061
7054
7033
7020
7011
7026
7041
7044
7033
7040
7046
7031
7018
7025
7049
7063
7061
7050
7024
6997
6968
6960
6954
6939
6917
6892
6854
6827
6793
6772
6770
6779
6785
6780
6768
6748
6729
6700
6678
6662
6660
6665
6662
6656
6648
6641
6644
6641
6644
6645
6650
6651
6647
6651
6654
6656
6647
6635
6622
6598
6576
6560
6562
6564
6564
6566
6566
6560
6556
6556
6558
6565
6573
6576
6592
6600
6613
6620
6618
6615
6609
6605
6601
6597
6586
6568
6557
6551
6556
6576
6592
6588
6581
6580
6583
6600
6623
6645
6673
6719
6782
6845
6887
6910
6938
6972
7003
7027
7047
7073
7117
7159
7221
7284
7344
7387
7402
7422
7439
7455
7470
7475
7471
7469
7472
7477
7489
7500
7507
7523
7545
7514
7492
7481
7453
7411
7379
7377
7367
7355
7350
7352
7365
7382
7445
7508
7537
7547
7537
7480
7416
7352
7326
7306
7249
7205
7164
7139
7114
7098
7073
7046
7013
6986
6974
6970
6979
6981
6977
6967
6954
6938
6908
6880
6870
6853
6831
6820
6809
6801
6794
6789
6791
6778
6751
6723
6700
6679
6668
6667
6664
6662
6662
6654
6649
6637
6624
6613
6596
6586
6576
6568
6560
6556
6552
6549
6545
6540
6537
6532
6517
6506
6508
6517
6523
6513
6496
6474
6452
6425
6401
6390
6386
6386
6382
6377
6369
6375
6371
6371
6376
6372
6363
6355
6345
6334
6326
6317
6317
6344
6407
6470
6533
6596
6659
6722
6785
6848
6911
6974
7037
7100
7163
7196
7196
7186
7166
7137
7106
7071
7058
7053
7025
6977
6947
6943
6970
6989
6990
6972
6954
6937
6921
6906
6894
6881
6861
6848
6847
6856
6876
6900
6921
6940
6965
6991
7029
7069
7119
7173
7222
7260
7307
7337
7360
7372
7385
7406
7433
7461
7484
7502
7523
7544
7561
7582
7603
7623
7639
7652
7670
7688
7711
7741
7767
7795
7824
7846
7871
7890
7910
7927
7950
7964
7986
8008
8030
8049
8078
8101
8125
8147
8165
8191
8203
8226
8231
8241
8252
8255
8266
8271
8289
8299
8303
8301
8302
8303
8309
8319
8334
8354
8368
8383
8391
8397
8400
8409
8428
8451
8475
8507
8536
8561
8583
8610
8632
8656
8680
8700
8726
8746
8771
8796
8834
8872
8912
8935
8963
8990
9015
9030
9046
9066
9080
9110
9144
9183
9241
9304
9367
9430
9493
9556
9619
9682
9745
9808
9871
9934
9997
10060
10123
10098
10034
9970
9906
9842
9778
9714
9650
9713
9776
9839
9902
9965
10028
10091
10154
10217
10280
10343
10406
10469
10532
10595
10658
10721
10784
10847
10910
10973
11036
11099
11162
11225
11288
11351
11414
11477
11540
11603
11666
11729
11792
11855
11918
11981
12044
12107
12170
12233
12296
12359
12422
12485
12548
12611
12674
12737
12800
12863
12926
12989
13052
13115
13178
13241
13304
13367
13430
13493
13556
13619
13682
13745
13808
13871
13934
13870
13806
13742
13678
13614
13550
13486
13422
13358
13294
13230
13166
13102
13038
12974
12910
12846
12782
12718
12654
12590
12526
12462
12398
12334
12270
12206
12142
12078
12014
11950
11886
11822
11758
11694
11630
11566
11502
11438
11374
11310
11246
11182
11118
11054
10990
10926
10862
10798
10734
10670
10606
10542
10478
10432
10423
10400
10361
10297
10233
10169
10106
10042
9978
9914
9850
9826
9807
9743
9679
9615
9551
9499
9482
9474
9458
9447
9454
9461
9459
9458
9460
9461
9437
9402
9375
9346
9295
9254
9223
9191
9160
9115
9086
9054
9014
9058
9044
9050
9069
9071
9088
9131
9194
9257
9320
9383
9446
9509
9572
9635
9698
9761
9824
9887
9950
10013
10076
10139
10202
10265
10314
10250
10186
10122
10058
9994
10057
10120
10183
10246
10309
10332
10268
10204
10140
10076
10012
9948
9884
9820
9756
9692
9628
9564
9500
9436
9372
9308
9244
9180
9116
9052
8988
8924
8860
8796
8732
8679
8669
8659
8656
8647
8656
8679
8725
8767
8784
8806
8854
8917
8980
9043
9106
9169
9232
9267
9270
9270
9265
9307
9365
9361
9297
9233
9169
9119
9078
9070
9058
9042
9021
9014
9009
8985
8947
8913
8885
8849
8824
8800
8777
8748
8728
8716
8718
8720
8716
8709
8704
8703
8766
8829
8892
8955
9018
9081
9144
9207
9270
9333
9396
9459
9522
9585
9648
9711
9774
9837
9900
9963
10026
10089
10152
10215
10278
10341
10404
10467
10530
10593
10656
10719
10782
10845
10908
10971
11034
11097
11160
11223
11286
11349
11412
11475
11538
11601
11664
11727
11790
11853
11916
11979
12042
12105
12168
12231
12294
12357
12420
12483
12546
12609
12672
12735
12798
12861
12924
12987
13050
13113
13176
13239
13302
13365
13428
13491
13554
13617
13680
13743
13806
13869
13932
13995
14058
13994
13930
13866
13802
13738
13674
13610
13546
13482
13418
13354
13290
13226
13162
13098
13034
12970
12906
12842
12778
12714
12650
12586
12522
12458
12394
12330
12266
12202
12138
12074
12010
11946
11882
11818
11754
11690
11626
11562
11498
11434
11370
11306
11242
11178
11114
11050
10986
10922
10858
10794
10730
10666
10602
10538
10474
10410
10346
10282
10218
10154
10090
10026
9962
9898
9834
9770
9706
9642
9578
9641
9704
9767
9830
9796
9732
9668
9604
9540
9476
9412
9348
9284
9220
9156
9092
9028
8964
8900
8836
8772
8708
8644
8580
8516
8452
8388
8324
8260
8196
8132
8068
8004
7940
7876
7812
7748
7684
7620
7556
7492
7468
7476
7486
7506
7531
7542
7545
7540
7527
7526
7546
7582
7602
7607
7621
7643
7669
7692
7707
7723
7750
7768
7775
7772
7774
7771
7782
7792
7799
7799
7799
7792
7777
7776
7792
7807
7815
7814
7816
7823
7841
7852
7848
7845
7850
7849
7847
7839
7828
7825
7821
7808
7802
7818
7828
7832
7845
7859
7875
7891
7901
7894
7896
7888
7877
7878
7880
7859
7803
7769
7762
7737
7710
7713
7748
7811
7838
7810
7777
7791
7831
7855
7885
7889
7868
7897
7960
8023
8086
8149
8212
8275
8338
8401
8464
8527
8590
8653
8716
8779
8842
8905
8968
9031
9094
9157
9220
9283
9346
9282
9218
9154
9090
9026
8962
8898
8834
8770
8706
8642
8578
8514
8450
8386
8322
8258
8194
8130
8116
8179
8242
8305
8368
8398
8351
8287
8223
8195
8258
8321
8384
8447
8510
8573
8636
8699
8762
8825
8888
8869
8805
8741
8677
8613
8549
8485
8421
8357
8293
8229
8165
8101
8037
7973
7909
7845
7781
7717
7653
7589
7525
7461
7397
7333
7269
7205
7169
7205
7167
7103
7039
6979
6965
6942
6921
6899
6886
6898
6903
6885
6853
6819
6772
6708
6644
6585
6557
6520
6456
6392
6360
6358
6351
6340
6320
6303
6298
6295
6292
6307
6309
6317
6377
6406
6419
6445
6399
6335
6298
6294
6329
6335
6319
6313
6317
6322
6301
6303
6324
6326
6336
6351
6357
6393
6402
6381
6377
6364
6300
6248
6264
6282
6267
6235
6217
6214
6200
6153
6106
6076
6069
6079
6101
6129
6148
6151
6161
6156
6151
6214
6236
6172
6108
6086
6080
6098
6108
6099
6084
6075
6074
6077
6077
6077
6073
6068
6069
6073
6079
6078
6075
6071
6069
6072
6083
6092
6100
6127
6135
6127
6117
6102
6095
6091
6085
6071
6053
6036
6027
6021
6013
6007
6012
6035
6053
6065
6068
6052
6030
6011
6004
5994
6013
6044
6073
6096
6112
6112
6100
6096
6083
6066
6057
6049
6043
6045
6047
6047
6040
6037
6031
6028
6023
6018
6011
6008
6007
6006
6005
6006
6011
6017
6028
6036
6051
6062
6072
6083
6090
6097
6102
6111
6126
6132
6149
6165
6186
6205
6232
6253
6285
6322
6335
6309
6268
6228
6216
6213
6202
6201
6196
6181
6161
6143
6129
6119
6114
6109
6106
6099
6090
6082
6080
6082
6080
6076
6066
6057
6051
6047
6046
6039
6031
6020
6006
5987
5969
5950
5932
5921
5907
5896
5883
5875
5864
5853
5842
5829
5820
5812
5803
5795
5788
5778
5771
5766
5762
5757
5752
5750
5746
5744
5741
5747
5752
5758
5762
5761
5762
5770
5778
5783
5789
5787
5787
5784
5783
5786
5782
5772
5761
5753
5749
5744
5741
5742
5744
5747
5754
5760
5764
5770
5776
5791
5814
5835
5847
5858
5864
5880
5909
5940
5977
6004
6039
6074
6104
6129
6163
6193
6226
6249
6250
6243
6224
6232
6252
6270
6290
6314
6342
6361
6379
6397
6423
6451
6486
6535
6584
6628
6667
6683
6697
6709
6731
6758
6793
6831
6869
6906
6942
6982
7019
7053
7081
7105
7119
7121
7114
7118
7116
7108
7088
7061
7025
6997
6974
6970
6970
6965
6958
6949
6945
6938
6927
6925
6922
6921
6915
6904
6888
6853
6817
6769
6724
6682
6648
6617
6592
6569
6549
6535
6521
6502
6489
6484
6482
6476
6467
6455
6443
6426
6414
6418
6415
6409
6401
6397
6397
6396
6391
6386
6381
6380
6380
6375
6366
6355
6349
6343
6334
6320
6313
6308
6305
6299
6288
6281
6274
6265
6257
6239
6224
6208
6196
6184
6165
6147
6133
6119
6106
6091
6073
6059
6049
6037
6028
6018
6004
5997
5991
5975
5968
5966
5964
5954
5951
5951
5949
5947
5943
5938
5937
5930
5941
5955
5954
5959
5967
5970
5968
5966
5975
5989
5974
5976
5988
5995
5996
5994
5990
5998
5983
5964
5952
5943
5935
5923
5914
5904
5892
5882
5870
5859
5844
5836
5827
5827
5827
5822
5811
5800
5810
5816
5801
5814
5830
5838
5840
5847
5847
5842
5834
5827
5820
5815
5804
5793
5783
5777
5765
5758
5750
5748
5743
5736
5727
5705
5683
5661
5641
5630
5619
5612
5600
5598
5601
5609
5622
5646
5666
5661
5657
5662
5687
5716
5723
5763
5818
5855
5885
5903
5919
5932
5951
5974
5995
6012
6015
6013
6010
6006
6000
5986
5970
5945
5913
5874
5841
5813
5782
5756
5734
5714
5699
5684
5673
5663
5656
5650
5645
5643
5641
5644
5652
5662
5678
5698
5719
5731
5745
5756
5768
5779
5787
5795
5798
5798
5794
5789
5786
5790
5790
5794
5800
5807
5814
5814
5822
5828
5834
5840
5847
5852
5856
5856
5844
5838
5830
5821
5807
5797
5788
5795
5810
5829
5840
5843
5832
5825
5815
5807
5815
5821
5825
5828
5838
5897
5960
6003
6018
6030
6021
6016
6009
5997
5970
5936
5905
5876
5854
5829
5809
5792
5775
5754
5736
5712
5693
5674
5655
5642
5623
5610
5599
5588
5572
5557
5539
5525
5509
5498
5489
5482
5467
5458
5448
5437
5430
5424
5416
5411
5406
5403
5396
5395
5393
5389
5384
5380
5377
5373
5370
5366
5366
5362
5360
5358
5352
5346
5337
5329
5320
5311
5305
5295
5287
5282
5278
5272
5267
5262
5259
5252
5244
5240
5235
5230
5221
5219
5214
5209
5207
5202
5203
5197
5194
5189
5187
5186
5185
5185
5185
5182
5182
5183
5181
5181
5183
5180
5180
5176
5172
5169
5163
5162
5162
5165
5165
5160
5156
5151
5146
5143
5141
5145
5147
5146
5148
5152
5158
5162
5170
5182
5206
5235
5267
5305
5342
5370
5393
5385
5388
5394
5410
5425
5437
5459
5488
5513
5543
5569
5599
5624
5650
5669
5689
5704
5712
5706
5707
5712
5717
5726
5741
5759
5788
5819
5846
5854
5847
5841
5838
5835
5836
5848
5865
5894
5929
5970
6029
6092
6149
6200
6242
6269
6295
6320
6344
6370
6391
6408
6440
6458
6458
6458
6462
6465
6468
6470
6471
6478
6473
6464
6460
6452
6443
6430
6426
6431
6431
6431
6427
6430
6426
6414
6405
6396
6399
6410
6417
6422
6440
6459
6475
6466
6441
6452
6468
6490
6508
6514
6519
6524
6516
6526
6552
6531
6526
6589
6630
6654
6671
6684
6663
6606
6562
6545
6522
6498
6486
6488
6471
6479
6500
6516
6541
6565
6588
6605
6631
6660
6681
6696
6705
6708
6715
6723
6737
6738
6733
6715
6690
6675
6666
6646
6619
6581
6552
6538
6519
6499
6480
6462
6444
6439
6445
6451
6453
6450
6442
6428
6414
6397
6376
6359
6346
6334
6326
6317
6312
6307
6310
6313
6318
6325
6326
6322
6319
6320
6317
6316
6315
6310
6304
6287
6267
6247
6230
6207
6193
6187
6178
6176
6171
6167
6157
6141
6132
6118
6107
6097
6091
6083
6074
6064
6057
6052
6045
6038
6032
6025
6016
6014
6013
6016
6018
6019
6029
6042
6056
6054
6044
6043
6051
6072
6096
6112
6120
6139
6184
6247
6306
6338
6355
6373
6397
6407
6420
6447
6483
6521
6545
6557
6564
6561
6563
6567
6549
6507
6463
6413
6389
6349
6314
6284
6263
6239
6225
6215
6210
6227
6273
6325
6380
6435
6476
6503
6515
6526
6531
6531
6521
6510
6493
6475
6466
6461
6449
6437
6421
6400
6379
6381
6364
6334
6321
6305
6280
6252
6225
6207
6199
6192
6178
6162
6153
6153
6164
6180
6197
6209
6209
6200
6196
6196
6195
6197
6211
6229
6248
6269
6286
6304
6322
6343
6364
6385
6400
6416
6431
6444
6463
6481
6485
6485
6504
6523
6533
6535
6534
6531
6525
6520
6522
6532
6533
6538
6544
6558
6574
6599
6620
6639
6664
6683
6694
6700
6700
6694
6692
6684
6676
6675
6671
6670
6669
6671
6672
6681
6690
6696
6698
6703
6701
6700
6700
6705
6714
6726
6748
6769
6786
6807
6833
6852
6867
6886
6898
6869
6805
6741
6739
6773
6784
6811
6853
6899
6921
6923
6895
6844
6791
6779
6802
6855
6918
6981
7044
7107
7170
7233
7250
7207
7163
7122
7093
7072
7049
7033
7015
7002
6989
6966
6943
6922
6900
6882
6861
6839
6821
6802
6778
6761
6749
6732
6718
6707
6697
6690
6682
6674
6666
6660
6654
6646
6639
6634
6627
6622
6616
6610
6600
6594
6584
6578
6571
6567
6563
6561
6553
6544
6537
6528
6524
6520
6511
6503
6496
6485
6477
6463
6448
6436
6422
6409
6397
6383
6373
6360
6350
6340
6333
6327
6320
6313
6309
6299
6294
6286
6277
6273
6264
6261
6255
6249
6243
6235
6231
6225
6218
6209
6206
6200
6193
6186
6183
6177
6172
6165
6157
6146
6136
6123
6114
6098
6089
6076
6064
6051
6037
6027
6016
6007
5996
5987
5979
5975
5970
5962
5952
5950
5942
5940
5935
5930
5927
5918
5909
5903
5897
5897
5893
5892
5889
5882
5881
5876
5872
5868
5866
5862
5859
5857
5850
5840
5832
5819
5806
5793
5782
5769
5760
5747
5740
5733
5725
5716
5712
5704
5701
5693
5690
5685
5680
5675
5674
5676
5676
5673
5672
5668
5662
5655
5646
5635
5628
5619
5615
5613
5609
5606
5601
5596
5588
5586
5583
5579
5574
5570
5561
5560
5555
5552
5550
5543
5546
5554
5554
5543
5531
5520
5507
5495
5487
5480
5472
5466
5458
5448
5446
5439
5434
5433
5433
5433
5431
5428
5428
5429
5427
5427
5427
5426
5426
5426
5425
5425
5424
5423
5417
5419
5419
5419
5420
5424
5428
5426
5428
5426
5434
5444
5458
5475
5491
5520
5547
5572
5593
5615
5630
5642
5650
5658
5665
5672
5679
5669
5636
5610
5605
5607
5602
5595
5586
5578
5576
5581
5585
5582
5578
5567
5561
5552
5539
5527
5521
5513
5508
5514
5512
5506
5504
5499
5503
5500
5500
5505
5507
5508
5506
5503
5498
5497
5504
5508
5531
5534
5526
5522
5522
5515
5500
5487
5497
5502
5510
5517
5521
5523
5530
5539
5542
5544
5544
5548
5551
5563
5586
5627
5690
5739
5780
5825
5840
5811
5872
5928
5991
6054
6083
6038
5999
5995
6019
6050
6047
6027
6027
6028
6018
6014
6019
6025
6042
6062
6093
6137
6176
6225
6266
6318
6346
6388
6405
6405
6460
6491
6534
6593
6627
6640
6648
6662
6667
6726
6755
6781
6800
6807
6777
6730
6709
6704
6706
6696
6687
6698
6688
6706
6740
6766
6811
6869
6922
6977
7018
7042
7105
7159
7184
7184
7190
7203
7192
7197
7193
7181
7188
7197
7137
7172
7108
7044
7010
7010
6964
6900
6836
6772
6739
6714
6682
6658
6644
6633
6628
6616
6613
6607
6607
6607
6607
6611
6612
6613
6611
6602
6592
6581
6571
6557
6551
6552
6548
6540
6537
6532
6531
6534
6541
6547
6557
6558
6558
6551
6547
6542
6537
6533
6533
6530
6530
6532
6535
6529
6526
6520
6518
6517
6512
6499
6492
6483
6477
6461
6455
6463
6455
6434
6413
6398
6392
6381
6359
6341
6337
6339
6328
6314
6305
6309
6318
6334
6345
6341
6342
6350
6356
6337
6320
6316
6324
6333
6348
6371
6391
6405
6416
6427
6422
6423
6410
6397
6386
6371
6366
6356
6346
6333
6320
6315
6310
6308
6304
6295
6284
6264
6254
6250
6246
6247
6250
6257
6260
6263
6284
6331
6394
6457
6520
6583
6646
6709
6772
6835
6898
6961
7024
7087
7150
7213
7276
7339
7402
7465
7528
7591
7654
7717
7780
7843
7906
7969
7969
7905
7841
7777
7713
7649
7585
7521
7457
7393
7385
7448
7511
7574
7637
7700
7763
7826
7889
7952
7936
7872
7808
7744
7680
7616
7552
7488
7424
7360
7296
7242
7255
7266
7272
7264
7253
7248
7251
7258
7250
7233
7215
7182
7131
7082
7042
7006
6969
6916
6884
6849
6814
6786
6769
6764
6759
6753
6752
6758
6762
6762
6761
6754
6744
6737
6732
6727
6722
6727
6726
6723
6713
6690
6672
6649
6626
6602
6578
6561
6543
6532
6524
6521
6522
6531
6537
6531
6525
6530
6545
6568
6588
6611
6647
6666
6707
6728
6736
6742
6737
6750
6769
6772
6770
6778
6791
6795
6801
6802
6802
6798
6793
6789
6788
6774
6756
6733
6705
6675
6645
6621
6616
6609
6635
6672
6735
6798
6861
6924
6987
7050
7113
7176
7239
7302
7365
7428
7491
7554
7617
7680
7743
7806
7869
7932
7995
8058
8121
8184
8247
8310
8373
8436
8499
8562
8625
8688
8751
8814
8877
8940
9003
9066
9129
9192
9255
9318
9381
9382
9318
9254
9190
9126
9062
8998
8934
8870
8806
8742
8678
8614
8550
8486
8422
8358
8294
8230
8166
8102
8038
7974
7910
7846
7782
7718
7654
7590
7526
7462
7398
7334
7270
7206
7193
7185
7172
7149
7129
7099
7077
7058
7041
7023
6996
6977
6961
6950
6936
6921
6906
6892
6883
6867
6853
6840
6834
6842
6853
6872
6893
6930
6957
6968
6964
6947
6935
6932
6942
6962
6969
6956
6951
6950
6967
6974
6973
6961
6949
6935
6919
6911
6907
6901
6891
6870
6853
6840
6826
6815
6806
6798
6792
6786
6781
6778
6777
6769
6766
6765
6762
6756
6749
6746
6738
6733
6725
6719
6711
6702
6694
6687
6682
6677
6672
6667
6662
6656
6650
6644
6632
6624
6613
6602
6594
6582
6570
6556
6547
6536
6526
6515
6505
6495
6484
6474
6466
6459
6452
6445
6440
6432
6427
6423
6415
6409
6401
6394
6388
6379
6369
6359
6347
6335
6321
6322
6315
6307
6300
6297
6298
6292
6288
6280
6275
6271
6263
6255
6245
6236
6225
6218
6211
6203
6197
6183
6168
6154
6140
6128
6124
6120
6110
6104
6099
6091
6082
6071
6059
6051
6039
6029
6024
6017
6008
5999
5988
5966
5950
5943
5950
5955
5978
6039
6098
6144
6207
6270
6333
6356
6334
6270
6212
6196
6204
6186
6149
6145
6152
6166
6180
6203
6237
6250
6238
6216
6215
6236
6255
6272
6272
6267
6269
6282
6295
6297
6291
6279
6278
6275
6272
6272
6269
6261
6257
6250
6256
6273
6294
6324
6352
6368
6369
6362
6353
6347
6323
6294
6257
6220
6189
6163
6142
6119
6094
6079
6073
6059
6045
6032
6025
6023
6022
6022
6022
6013
6003
5993
5976
5966
5963
5964
5972
5979
5987
5998
6006
6009
6016
6024
6030
6036
6036
6030
6021
6018
6018
6013
6006
5996
5986
5982
5986
5987
5986
5982
5972
5962
5955
5944
5934
5918
5891
5883
5888
5894
5889
5880
5873
5863
5848
5835
5831
5824
5815
5802
5795
5787
5783
5781
5781
5782
5785
5793
5804
5828
5867
5915
5965
6002
6035
6064
6084
6105
6129
6140
6140
6128
6116
6100
6082
6068
6052
6033
6011
5986
5968
5946
5925
5897
5862
5837
5832
5833
5828
5824
5819
5817
5810
5809
5803
5791
5777
5767
5766
5770
5771
5769
5759
5749
5742
5736
5728
5721
5713
5707
5704
5700
5695
5684
5673
5666
5656
5644
5636
5627
5617
5610
5602
5590
5585
5580
5589
5589
5582
5580
5575
5585
5611
5644
5682
5704
5709
5705
5696
5694
5690
5691
5690
5685
5681
5680
5674
5663
5653
5642
5630
5613
5593
5582
5568
5559
5545
5534
5529
5528
5524
5527
5532
5537
5542
5553
5567
5581
5593
5606
5625
5645
5665
5683
5701
5719
5736
5762
5793
5822
5849
5878
5912
5943
5970
5992
6008
6028
6054
6087
6117
6146
6172
6192
6220
6242
6264
6274
6274
6272
6269
6265
6250
6225
6196
6166
6136
6110
6084
6059
6038
6025
6011
6009
6007
6011
6018
6029
6046
6086
6132
6183
6215
6237
6256
6272
6294
6343
6401
6444
6474
6511
6562
6609
6649
6679
6701
6718
6731
6743
6741
6735
6721
6701
6684
6655
6625
6590
6560
6535
6516
6500
6479
6459
6435
6406
6377
6351
6327
6305
6286
6265
6255
6243
6233
6227
6219
6208
6195
6179
6165
6151
6140
6131
6120
6109
6095
6084
6071
6059
6044
6022
6005
6001
6009
6016
6027
6053
6073
6085
6093
6101
6124
6156
6170
6146
6124
6133
6152
6149
6156
6191
6239
6274
6310
6349
6393
6428
6465
6508
6556
6604
6652
6694
6724
6740
6750
6756
6772
6789
6803
6796
6767
6716
6663
6641
6632
6621
6633
6659
6685
6693
6686
6667
6648
6646
6659
6670
6671
6669
6683
6698
6717
6754
6817
6880
6943
7006
7069
7132
7195
7258
7321
7384
7447
7510
7573
7636
7699
7762
7825
7866
7883
7907
7932
7956
7981
8009
8040
8083
8118
8152
8180
8213
8242
8258
8274
8288
8303
8321
8336
8349
8360
8366
8358
8339
8300
8238
8174
8110
8046
7982
7918
7854
7790
7726
7662
7598
7534
7470
7406
7342
7278
7247
7243
7229
7213
7204
7197
7189
7189
7187
7180
7173
7167
7171
7162
7155
7143
7123
7096
7068
7042
7020
7005
6983
6962
6948
6937
6926
6912
6896
6883
6869
6860
6846
6832
6819
6812
6801
6788
6772
6761
6752
6746
6735
6725
6717
6709
6702
6699
6697
6693
6686
6682
6675
6672
6667
6657
6654
6651
6647
6647
6640
6631
6623
6620
6611
6601
6595
6587
6577
6576
6571
6563
6557
6552
6547
6543
6541
6538
6538
6535
6532
6531
6527
6525
6516
6513
6512
6513
6511
6503
6498
6493
6486
6485
6482
6480
6475
6475
6468
6464
6465
6462
6460
6457
6452
6443
6436
6430
6421
6411
6400
6390
6379
6365
6351
6340
6332
6323
6315
6308
6302
6294
6289
6283
6276
6272
6267
6262
6257
6251
6247
6245
6240
6231
6225
6223
6220
6220
6217
6215
6214
6217
6219
6226
6231
6236
6242
6245
6245
6245
6255
6258
6253
6240
6228
6217
6206
6196
6183
6166
6153
6138
6124
6109
6097
6081
6071
6062
6049
6038
6028
6020
6004
5996
5983
5966
5954
5954
5955
5963
5968
5970
5972
5968
5968
5965
5962
5960
5957
5956
5954
5949
5948
5951
5960
5981
5987
5992
6005
6024
6050
6110
6164
6193
6187
6200
6237
6271
6293
6311
6318
6310
6292
6266
6220
6173
6134
6122
6135
6142
6140
6142
6142
6136
6124
6111
6100
6092
6086
6088
6079
6064
6053
6050
6077
6096
6113
6129
6123
6095
6074
6059
6043
6025
6002
5991
5982
5984
5988
5992
5990
5984
5974
5962
5945
5944
5950
5935
5912
5901
5922
5952
5985
6010
6033
6056
6078
6108
6139
6180
6226
6272
6294
6300
6295
6301
6326
6358
6380
6385
6363
6354
6383
6409
6421
6417
6407
6399
6405
6403
6394
6378
6359
6343
6320
6280
6230
6199
6192
6166
6145
6159
6187
6193
6167
6139
6150
6194
6244
6275
6304
6323
6335
6345
6357
6365
6394
6442
6483
6506
6527
6547
6570
6584
6605
6620
6640
6670
6701
6730
6749
6774
6804
6837
6858
6876
6895
6917
6939
6946
6957
7020
7025
7056
7119
7182
7245
7308
7371
7434
7497
7560
7623
7686
7749
7812
7875
7917
7941
7962
7989
8009
8044
8069
8098
8147
8210
8273
8336
8399
8462
8525
8588
8651
8714
8751
8731
8713
8681
8678
8622
8634
8643
8666
8729
8792
8855
8918
8981
9044
9107
9094
9039
9090
9132
9174
9204
9195
9195
9230
9293
9356
9399
9356
9292
9351
9408
9350
9310
9246
9182
9118
9054
8990
8926
8862
8798
8861
8924
8987
9050
9113
9176
9239
9302
9365
9428
9491
9554
9617
9680
9743
9806
9869
9932
9995
10058
10121
10184
10247
10310
10373
10436
10372
10368
10409
10387
10323
10259
10234
10240
10255
10242
10219
10184
10120
10087
10114
10177
10240
10303
10366
10429
10492
10555
10618
10681
10744
10789
10804
10774
10783
10846
10872
10852
10839
10880
10908
10955
10984
11015
11051
11056
11021
10970
10930
10924
10895
10891
10939
11002
10944
10880
10816
10879
10942
11005
11068
11131
11194
11257
11320
11383
11402
11338
11274
11210
11146
11082
11018
10954
10890
10826
10762
10698
10634
10570
10506
10442
10378
10314
10265
10234
10219
10252
10301
10339
10370
10400
10452
10515
10578
10599
10585
10567
10553
10539
10503
10447
10383
10319
10255
10191
10127
10063
9999
9935
9871
9807
9743
9679
9615
9551
9487
9423
9359
9295
9231
9167
9103
9039
9079
9142
9205
9268
9331
9394
9457
9520
9583
9646
9709
9645
9581
9517
9453
9389
9337
9400
9455
9467
9461
9458
9463
9498
9535
9573
9618
9662
9703
9727
9727
9722
9708
9688
9672
9661
9658
9653
9659
9657
9651
9654
9659
9672
9689
9709
9726
9742
9756
9773
9781
9794
9797
9798
9793
9785
9785
9794
9806
9823
9834
9844
9855
9857
9868
9880
9887
9899
9914
9924
9929
9925
9922
9917
9914
9912
9907
9901
9893
9891
9887
9889
9888
9898
9905
9918
9930
9942
9953
9958
9971
9985
9993
9998
9998
9999
10007
10013
10020
10027
10035
10041
10046
10054
10059
10065
10062
10052
10044
10040
10038
10045
10044
10042
10040
10041
10041
10042
10037
10032
10024
10017
10015
10003
9993
9982
9965
9943
9919
9884
9851
9828
9816
9814
9822
9832
9842
9857
9869
9839
9783
9719
9655
9591
9527
9463
9399
9335
9293
9232
9168
9104
9040
9014
9023
9036
9027
8997
8997
9036
9096
9142
9173
9212
9258
9314
9351
9370
9376
9369
9366
9370
9337
9287
9249
9232
9236
9246
9255
9255
9238
9216
9199
9181
9188
9229
9269
9282
9252
9188
9124
9060
9027
9036
9090
9153
9216
9279
9342
9405
9389
9325
9261
9197
9133
9069
9005
8941
8877
8813
8763
8742
8701
8655
8618
8584
8551
8530
8514
8503
8494
8487
8486
8479
8485
8495
8512
8521
8510
8496
8474
8465
8457
8460
8461
8463
8486
8512
8517
8545
8572
8587
8597
8599
8592
8564
8542
8507
8466
8439
8405
8366
8318
8255
8193
8129
8065
8007
7953
7901
7859
7841
7844
7847
7852
7850
7840
7844
7866
7911
7949
7958
7921
7877
7847
7826
7830
7858
7921
7899
7865
7810
7767
7739
7741
7769
7792
7787
7764
7734
7712
7701
7700
7693
7681
7665
7646
7638
7623
7605
7585
7571
7565
7569
7568
7560
7545
7531
7515
7506
7496
7484
7474
7466
7458
7451
7449
7443
7432
7416
7406
7399
7390
7385
7377
7368
7358
7347
7340
7337
7339
7372
7435
7498
7528
7523
7494
7457
7410
7379
7359
7371
7399
7444
7507
7570
7633
7696
7759
7822
7885
7948
8011
8074
8137
8200
8263
8326
8389
8452
8515
8578
8641
8704
8767
8830
8893
8956
9019
9082
9145
9172
9189
9210
9242
9279
9323
9369
9432
9495
9552
9604
9634
9640
9646
9636
9602
9572
9557
9539
9529
9522
9526
9523
9520
9527
9527
9527
9546
9569
9586
9591
9592
9583
9587
9582
9586
9597
9628
9631
9633
9653
9658
9660
9666
9661
9657
9655
9645
9653
9640
9629
9646
9645
9641
9650
9665
9685
9691
9699
9718
9747
9749
9745
9728
9713
9711
9708
9714
9711
9688
9629
9565
9508
9543
9578
9621
9665
9688
9739
9768
9774
9790
9814
9828
9839
9837
9823
9815
9824
9837
9850
9848
9834
9772
9719
9668
9623
9626
9689
9752
9815
9757
9693
9629
9565
9501
9437
9373
9309
9245
9181
9117
9053
8989
8925
8861
8797
8733
8669
8605
8541
8477
8413
8349
8285
8221
8157
8093
8029
7965
7901
7837
7773
7709
7645
7632
7624
7605
7572
7541
7528
7524
7515
7497
7471
7439
7412
7416
7413
7373
7309
7245
7215
7211
7157
7097
7039
6981
6927
6875
6823
6776
6734
6707
6685
6669
6651
6636
6626
6622
6622
6612
6606
6598
6596
6589
6582
6578
6574
6573
6574
6572
6567
6572
6575
6572
6564
6551
6512
6448
6384
6380
6408
6416
6396
6355
6313
6293
6299
6306
6306
6287
6257
6236
6222
6208
6206
6200
6200
6193
6183
6170
6150
6133
6125
6123
6122
6110
6090
6095
6103
6094
6075
6059
6073
6097
6135
6178
6219
6249
6276
6302
6341
6359
6343
6302
6268
6249
6244
6245
6244
6245
6241
6224
6212
6215
6229
6179
6185
6179
6162
6157
6147
6140
6139
6140
6146
6150
6145
6140
6136
6131
6114
6084
6070
6065
6053
6044
6074
6121
6128
6112
6094
6102
6119
6139
6160
6215
6278
6341
6404
6467
6530
6593
6656
6719
6782
6845
6908
6971
7030
7010
6991
6991
7001
7012
7020
7026
7060
7123
7186
7211
7228
7256
7273
7291
7354
7417
7478
7480
7432
7368
7311
7268
7265
7263
7251
7249
7270
7318
7374
7395
7392
7385
7375
7364
7356
7344
7322
7315
7307
7279
7273
7273
7264
7241
7223
7214
7227
7242
7257
7264
7268
7275
7288
7294
7294
7290
7290
7302
7308
7315
7318
7332
7361
7393
7434
7473
7500
7519
7542
7568
7580
7562
7535
7513
7497
7478
7453
7437
7419
7413
7413
7419
7418
7408
7394
7383
7377
7371
7364
7369
7388
7401
7401
7385
7368
7344
7343
7340
7332
7323
7317
7309
7300
7285
7275
7268
7268
7270
7256
7225
7194
7161
7147
7122
7109
7104
7088
7074
7060
7038
7021
7002
6994
6991
6989
6989
6996
7020
7066
7129
7192
7255
7318
7381
7444
7507
7570
7633
7696
7759
7822
7885
7948
8011
8010
7948
7914
7877
7842
7810
7783
7752
7732
7707
7697
7696
7696
7700
7706
7709
7723
7786
7829
7817
7817
7812
7788
7760
7731
7678
7616
7560
7550
7537
7504
7458
7424
7408
7390
7376
7360
7334
7306
7284
7271
7257
7245
7240
7243
7239
7241
7252
7265
7283
7285
7265
7255
7269
7277
7287
7299
7292
7234
7190
7179
7189
7229
7292
7355
7418
7481
7544
7607
7670
7733
7796
7859
7922
7985
8048
8111
8174
8237
8300
8363
8426
8489
8552
8615
8678
8741
8804
8867
8930
8993
9056
9119
9182
9245
9308
9371
9434
9497
9560
9623
9686
9749
9812
9875
9938
10001
10064
10127
10190
10253
10316
10379
10341
10292
10228
10164
10100
10036
9972
9908
9844
9780
9716
9652
9588
9524
9460
9396
9332
9268
9204
9140
9076
9012
8948
8884
8820
8756
8692
8628
8564
8500
8436
8372
8308
8244
8180
8116
8052
7988
7924
7860
7796
7732
7668
7604
7540
7476
7412
7348
7328
7315
7296
7279
7260
7233
7210
7189
7163
7135
7114
7102
7087
7075
7069
7061
7057
7050
7041
7028
7015
7002
6992
6986
6977
6969
6960
6954
6944
6933
6924
6917
6905
6900
6895
6887
6874
6864
6845
6830
6816
6796
6777
6760
6737
6720
6703
6687
6676
6662
6654
6649
6643
6638
6635
6639
6650
6655
6672
6698
6710
6723
6718
6715
6711
6703
6699
6692
6688
6683
6682
6675
6669
6662
6656
6647
6642
6640
6635
6631
6627
6623
6632
6630
6624
6617
6604
6591
6576
6559
6544
6527
6510
6493
6477
6461
6448
6439
6430
6418
6412
6405
6397
6392
6386
6375
6370
6365
6358
6350
6345
6335
6327
6321
6316
6309
6303
6300
6293
6295
6288
6284
6278
6275
6272
6271
6267
6263
6264
6257
6251
6246
6239
6235
6224
6213
6207
6197
6187
6180
6174
6163
6158
6152
6147
6142
6139
6135
6132
6129
6125
6122
6118
6117
6113
6108
6107
6103
6097
6097
6094
6092
6088
6088
6086
6086
6087
6085
6083
6084
6081
6085
6086
6088
6086
6086
6087
6083
6080
6077
6071
6067
6055
6048
6037
6032
6015
5992
5976
5959
5949
5943
5936
5935
5934
5932
5929
5929
5925
5925
5926
5927
5923
5918
5921
5927
5942
5978
6030
6073
6099
6116
6130
6141
6153
6162
6171
6179
6187
6192
6195
6193
6186
6180
6170
6152
6140
6125
6109
6096
6085
6069
6057
6044
6031
6018
6007
5998
5985
5976
5962
5955
5948
5943
5940
5933
5923
5912
5900
5903
5910
5908
5904
5893
5885
5885
5886
5890
5889
5882
5869
5863
5856
5850
5847
5842
5839
5839
5839
5841
5839
5833
5833
5831
5832
5834
5852
5876
5910
5948
6000
6063
6126
6189
6252
6315
6378
6441
6504
6567
6630
6640
6640
6629
6596
6553
6515
6485
6459
6434
6400
6365
6334
6307
6288
6270
6255
6240
6225
6209
6192
6174
6153
6134
6118
6100
6089
6083
6078
6074
6066
6063
6060
6063
6078
6084
6096
6097
6090
6089
6093
6087
6072
6048
6037
6031
6017
6000
5985
5981
5978
5975
5969
5957
5936
5930
5940
5951
5970
5989
6012
6028
6033
6034
6027
6011
5984
5962
5955
5945
5935
5909
5897
5900
5908
5909
5920
5951
5965
5960
5960
5976
6009
6025
6028
6038
6025
6053
6083
6145
6208
6271
6334
6278
6286
6349
6412
6475
6538
6601
6664
6727
6790
6853
6916
6979
7042
7105
7168
7222
7195
7175
7141
7133
7127
7096
7032
6968
6904
6840
6776
6723
6686
6622
6562
6539
6530
6592
6655
6718
6781
6844
6907
6970
7033
7096
7159
7222
7285
7348
7411
7474
7537
7590
7526
7462
7409
7379
7345
7338
7342
7348
7347
7350
7383
7415
7449
7475
7515
7562
7617
7680
7733
7774
7815
7866
7901
7930
7955
7969
7981
7960
7925
7984
8047
8110
8173
8236
8299
8362
8425
8488
8551
8614
8677
8740
8803
8866
8929
8890
8826
8762
8698
8634
8570
8506
8442
8378
8314
8250
8186
8122
8058
7994
7930
7866
7802
7738
7674
7610
7546
7482
7418
7354
7318
7319
7329
7392
7435
7413
7371
7340
7322
7294
7251
7273
7266
7237
7192
7141
7111
7097
7088
7103
7147
7158
7128
7084
7022
6980
6964
6958
6956
6954
6952
6964
6990
7003
6989
6955
6920
6895
6884
6869
6856
6838
6822
6810
6800
6794
6782
6775
6766
6755
6749
6742
6734
6723
6718
6710
6702
6697
6689
6687
6681
6677
6673
6668
6662
6657
6652
6645
6640
6635
6631
6627
6622
6618
6611
6610
6604
6598
6587
6576
6565
6559
6549
6539
6531
6524
6515
6510
6502
6497
6492
6486
6481
6484
6478
6473
6464
6460
6456
6455
6447
6445
6440
6440
6441
6440
6434
6433
6434
6438
6446
6447
6449
6447
6450
6458
6468
6470
6454
6426
6412
6404
6403
6407
6408
6397
6376
6373
6380
6373
6359
6337
6336
6335
6336
6336
6334
6335
6336
6337
6333
6336
6350
6363
6366
6366
6369
6378
6386
6395
6402
6403
6400
6392
6370
6355
6341
6350
6363
6377
6400
6416
6423
6415
6406
6428
6466
6484
6493
6497
6502
6505
6506
6528
6558
6586
6630
6669
6667
6635
6581
6541
6505
6478
6456
6444
6432
6436
6452
6487
6532
6555
6551
6505
6447
6428
6436
6451
6468
6469
6465
6466
6475
6485
6496
6510
6516
6532
6567
6612
6654
6682
6700
6709
6701
6714
6745
6722
6669
6659
6651
6605
6550
6532
6553
6541
6477
6413
6416
6435
6471
6494
6490
6477
6476
6482
6471
6453
6455
6434
6404
6399
6406
6400
6391
6391
6404
6412
6423
6433
6429
6414
6399
6406
6434
6451
6427
6413
6410
6392
6401
6413
6410
6408
6414
6426
6440
6438
6426
6409
6399
6387
6379
6374
6355
6291
6227
6229
6289
6342
6374
6366
6352
6339
6343
6351
6357
6385
6416
6433
6452
6475
6511
6547
6564
6577
6612
6621
6613
6585
6557
6511
6483
6462
6439
6415
6398
6387
6373
6362
6363
6365
6371
6376
6380
6390
6395
6393
6405
6436
6463
6481
6494
6491
6489
6486
6497
6520
6517
6525
6538
6533
6563
6626
6689
6752
6796
6829
6867
6911
6944
6961
6953
6942
6920
6885
6822
6758
6709
6667
6630
6613
6588
6555
6535
6517
6514
6519
6546
6587
6615
6627
6632
6639
6664
6675
6700
6727
6749
6769
6795
6846
6909
6937
6958
6976
6979
6980
6993
7016
7067
7066
7055
7059
7104
7141
7162
7176
7186
7215
7252
7297
7334
7365
7414
7471
7519
7567
7615
7657
7693
7725
7746
7758
7777
7801
7825
7853
7876
7919
7965
8005
8051
8105
8164
8227
8290
8353
8407
8437
8471
8505
8531
8561
8589
8618
8645
8671
8693
8707
8712
8711
8697
8681
8656
8633
8613
8601
8602
8608
8621
8631
8645
8666
8687
8718
8758
8810
8873
8936
8999
9062
9125
9188
9251
9314
9377
9440
9503
9566
9629
9692
9755
9818
9881
9944
10007
10063
10108
10158
10202
10245
10270
10309
10347
10383
10407
10425
10473
10502
10540
10580
10635
10693
10750
10813
10869
10911
10947
10983
11014
11042
11059
11060
11050
11029
10968
10904
10840
10776
10712
10648
10584
10520
10456
10392
10328
10264
10242
10271
10328
10391
10454
10517
10580
10643
10706
10769
10832
10895
10909
10885
10880
10881
10881
10887
10884
10886
10888
10894
10880
10870
10855
10855
10857
10859
10866
10869
10866
10863
10859
10861
10858
10858
10846
10842
10841
10840
10838
10833
10826
10813
10786
10748
10705
10659
10621
10588
10563
10538
10503
10462
10416
10365
10333
10306
10263
10211
10161
10126
10110
10102
10102
10105
10099
10092
10080
10074
10067
10073
10083
10097
10109
10123
10134
10139
10146
10159
10167
10157
10140
10135
10112
10081
10037
10010
9989
9967
9946
9923
9906
9889
9870
9852
9827
9794
9751
9712
9689
9672
9654
9630
9598
9574
9549
9517
9493
9474
9451
9418
9382
9331
9267
9203
9139
9075
9011
8947
8883
8819
8755
8691
8627
8563
8499
8435
8371
8307
8266
8266
8259
8251
8253
8258
8275
8296
8324
8336
8348
8355
8372
8388
8404
8425
8435
8431
8410
8374
8315
8256
8209
8173
8140
8121
8106
8094
8079
8068
8059
8047
8027
8015
8028
8082
8116
8139
8154
8157
8152
8150
8152
8146
8136
8120
8101
8084
8064
8043
8017
8000
7972
7947
7917
7879
7847
7821
7800
7783
7769
7755
7746
7744
7736
7726
7714
7704
7697
7696
7694
7700
7702
7699
7694
7688
7683
7681
7674
7675
7675
7669
7663
7657
7646
7650
7650
7647
7638
7629
7625
7620
7619
7610
7600
7592
7588
7580
7567
7561
7556
7549
7548
7538
7530
7523
7519
7512
7508
7510
7508
7506
7504
7499
7488
7471
7452
7431
7416
7394
7368
7339
7306
7291
7278
7268
7256
7245
7234
7228
7224
7213
7205
7198
7190
7182
7175
7172
7173
7172
7168
7153
7140
7131
7121
7113
7102
7097
7088
7083
7074
7068
7059
7052
7043
7030
7021
7009
7000
6992
6975
6955
6931
6914
6896
6882
6863
6848
6840
6829
6818
6809
6803
6797
6811
6806
6795
6784
6770
6755
6737
6721
6706
6692
6682
6673
6663
6658
6653
6646
6651
6662
6666
6678
6696
6722
6754
6794
6837
6868
6903
6935
6961
6974
6979
6976
6976
6974
6963
6946
6924
6901
6879
6858
6846
6834
6818
6798
6783
6780
6778
6774
6767
6766
6762
6759
6749
6739
6725
6695
6661
6622
6585
6554
6524
6498
6477
6457
6440
6423
6411
6397
6389
6378
6370
6361
6351
6341
6325
6306
6290
6282
6272
6265
6264
6283
6310
6359
6409
6445
6489
6542
6605
6668
6731
6789
6819
6848
6904
6967
7030
7093
7156
7124
7060
6996
6932
6898
6875
6846
6822
6798
6773
6765
6752
6733
6711
6703
6707
6690
6663
6651
6650
6629
6621
6622
6625
6632
6634
6650
6681
6699
6707
6711
6705
6703
6708
6709
6727
6747
6746
6751
6750
6736
6718
6705
6712
6727
6729
6718
6703
6689
6678
6670
6657
6650
6649
6647
6647
6630
6599
6566
6534
6513
6500
6496
6487
6485
6484
6476
6476
6481
6483
6483
6486
6490
6489
6489
6475
6459
6444
6424
6404
6387
6376
6374
6378
6385
6395
6401
6411
6416
6422
6415
6419
6446
6458
6412
6348
6299
6261
6234
6227
6244
6264
6289
6301
6299
6300
6284
6288
6311
6341
6377
6410
6432
6451
6479
6522
6575
6624
6663
6693
6695
6696
6717
6742
6770
6822
6873
6896
6921
6936
6940
6944
6954
6950
6929
6901
6869
6842
6808
6767
6723
6674
6628
6591
6556
6517
6485
6457
6440
6433
6420
6403
6376
6350
6336
6341
6395
6458
6492
6501
6492
6476
6455
6433
6422
6426
6451
6496
6547
6585
6614
6632
6688
6751
6814
6877
6940
6999
6977
6913
6849
6785
6721
6657
6593
6559
6600
6658
6694
6711
6717
6714
6712
6708
6698
6691
6689
6683
6685
6671
6636
6605
6591
6572
6544
6539
6534
6510
6486
6465
6449
6432
6418
6397
6379
6361
6345
6323
6303
6284
6265
6249
6233
6219
6207
6196
6190
6185
6180
6179
6172
6168
6160
6153
6144
6139
6137
6132
6124
6121
6115
6109
6106
6101
6095
6089
6080
6073
6064
6059
6048
6041
6031
6022
6016
6009
6003
5990
5977
5959
5950
5934
5921
5914
5908
5906
5905
5894
5886
5871
5862
5858
5851
5850
5848
5843
5837
5828
5823
5818
5816
5806
5792
5781
5775
5765
5756
5742
5736
5729
5720
5711
5706
5705
5706
5700
5695
5692
5690
5689
5686
5685
5686
5688
5681
5677
5666
5661
5655
5651
5649
5655
5659
5672
5679
5691
5702
5714
5735
5751
5766
5769
5769
5761
5756
5753
5747
5740
5727
5721
5710
5705
5699
5702
5698
5694
5694
5695
5692
5690
5691
5687
5687
5683
5684
5683
5677
5674
5670
5660
5650
5647
5640
5630
5622
5614
5607
5599
5590
5584
5576
5569
5560
5554
5546
5544
5537
5532
5529
5523
5520
5514
5511
5510
5505
5501
5497
5491
5489
5486
5483
5478
5475
5473
5473
5469
5466
5463
5462
5460
5459
5460
5459
5458
5460
5456
5453
5449
5442
5434
5429
5424
5417
5411
5406
5403
5397
5393
5390
5384
5383
5379
5376
5373
5373
5371
5368
5366
5363
5362
5360
5357
5355
5353
5350
5351
5349
5350
5349
5349
5348
5347
5351
5350
5351
5354
5353
5356
5358
5362
5362
5370
5380
5387
5397
5403
5411
5421
5432
5444
5457
5466
5478
5482
5486
5489
5496
5502
5510
5518
5529
5543
5559
5575
5579
5598
5616
5632
5650
5668
5688
5710
5728
5747
5766
5789
5816
5842
5869
5895
5924
5950
5976
6004
6034
6062
6091
6119
6138
6155
6168
6179
6183
6189
6190
6191
6193
6192
6191
6187
6189
6183
6180
6179
6176
6175
6176
6176
6173
6172
6170
6169
6167
6167
6167
6164
6166
6164
6161
6160
6158
6154
6151
6148
6147
6145
6142
6138
6139
6136
6137
6134
6130
6125
6121
6110
6097
6077
6055
6031
6011
5990
5972
5956
5942
5927
5913
5903
5892
5886
5878
5869
5866
5859
5854
5851
5845
5843
5839
5836
5829
5825
5821
5817
5815
5815
5812
5811
5809
5808
5805
5804
5803
5801
5799
5800
5798
5795
5795
5792
5792
5789
5787
5784
5783
5778
5775
5772
5769
5762
5759
5752
5750
5743
5739
5738
5732
5727
5723
5719
5719
5717
5716
5715
5713
5711
5711
5708
5707
5706
5703
5700
5701
5698
5697
5698
5695
5694
5696
5697
5696
5698
5698
5699
5700
5701
5702
5701
5703
5702
5706
5706
5706
5704
5701
5700
5694
5693
5692
5693
5693
5691
5691
5689
5688
5682
5682
5683
5681
5683
5680
5682
5680
5680
5679
5677
5678
5678
5679
5680
5680
5676
5677
5676
5678
5675
5675
5674
5677
5676
5674
5672
5671
5674
5672
5671
5673
5672
5672
5671
5670
5670
5667
5664
5660
5657
5653
5647
5643
5643
5637
5634
5629
5629
5629
5628
5627
5627
5626
5627
5628
5624
5623
5623
5626
5622
5622
5621
5619
5619
5619
5621
5624
5623
5623
5624
5627
5630
5631
5633
5634
5636
5637
5640
5645
5642
5644
5644
5651
5649
5650
5649
5650
5652
5649
5646
5641
5641
5633
5630
5626
5623
5621
5618
5613
5609
5607
5605
5604
5600
5598
5596
5596
5596
5597
5601
5604
5606
5610
5613
5617
5618
5618
5620
5624
5624
5622
5621
5621
5620
5620
5621
5622
5623
5620
5619
5617
5614
5610
5603
5600
5595
5597
5590
5594
5594
5593
5594
5594
5599
5603
5607
5613
5620
5630
5647
5646
5647
5650
5647
5655
5653
5650
5644
5640
5634
5615
5603
5590
5582
5574
5563
5553
5551
5551
5550
5553
5558
5569
5566
5546
5528
5518
5521
5528
5541
5556
5566
5580
5586
5597
5630
5688
5737
5745
5742
5735
5732
5735
5746
5749
5747
5742
5739
5733
5739
5739
5729
5721
5713
5705
5692
5678
5677
5692
5704
5703
5700
5697
5702
5720
5734
5737
5730
5731
5747
5781
5802
5790
5767
5748
5747
5746
5747
5750
5752
5749
5740
5731
5728
5728
5729
5726
5724
5716
5712
5705
5708
5715
5724
5722
5715
5703
5695
5689
5686
5683
5684
5683
5685
5682
5679
5680
5676
5672
5665
5665
5663
5659
5652
5643
5637
5636
5646
5650
5652
5652
5647
5646
5642
5643
5653
5677
5711
5754
5777
5784
5819
5842
5817
5784
5778
5783
5787
5776
5762
5745
5731
5724
5717
5712
5709
5708
5707
5708
5708
5711
5708
5712
5712
5719
5718
5719
5717
5714
5716
5718
5720
5724
5727
5730
5731
5729
5727
5725
5721
5720
5720
5716
5717
5712
5711
5709
5704
5701
5699
5698
5700
5699
5697
5700
5701
5700
5701
5701
5702
5701
5705
5709
5712
5714
5716
5717
5717
5717
5716
5715
5713
5710
5707
5704
5700
5695
5695
5695
5693
5692
5696
5702
5703
5704
5703
5701
5703
5709
5707
5700
5699
5700
5703
5701
5695
5681
5668
5659
5652
5650
5651
5652
5653
5654
5660
5658
5662
5664
5661
5661
5662
5661
5659
5662
5659
5658
5659
5658
5657
5659
5657
5656
5655
5653
5645
5638
5630
5624
5618
5612
5607
5604
5600
5597
5595
5593
5590
5587
5587
5586
5589
5589
5590
5589
5588
5587
5586
5586
5579
5579
5581
5581
5644
5635
5585
5581
5573
5561
5548
5547
5540
5543
5543
5545
5549
5548
5550
5549
5551
5554
5557
5558
5559
5563
5561
5563
5560
5561
5567
5576
5598
5631
5661
5687
5715
5729
5729
5721
5715
5708
5702
5692
5686
5671
5654
5642
5623
5611
5593
5578
5561
5559
5544
5544
5551
5556
5560
5567
5570
5573
5577
5580
5583
5593
5597
5602
5602
5601
5595
5592
5591
5587
5583
5575
5571
5557
5550
5538
5533
5531
5539
5551
5564
5572
5581
5583
5574
5575
5568
5566
5560
5556
5551
5540
5533
5530
5525
5523
5518
5507
5503
5503
5505
5504
5509
5512
5511
5508
5512
5512
5510
5509
5509
5509
5508
5507
5507
5505
5501
5496
5490
5487
5484
5489
5485
5485
5487
5482
5480
5479
5480
5479
5477
5482
5483
5483
5486
5488
5492
5488
5481
5468
5458
5450
5446
5444
5442
5443
5440
5434
5433
5426
5424
5418
5412
5407
5397
5388
5379
5370
5359
5351
5342
5336
5329
5325
5322
5320
5318
5320
5324
5330
5333
5335
5339
5341
5343
5339
5340
5333
5330
5324
5319
5316
5313
5312
5309
5309
5306
5304
5303
5300
5300
5299
5296
5289
5288
5288
5281
5279
5278
5271
5267
5260
5255
5249
5243
5236
5233
5227
5224
5222
5217
5216
5217
5215
5219
5220
5223
5228
5233
5236
5242
5244
5248
5255
5255
5249
5243
5241
5237
5236
5235
5237
5234
5238
5236
5239
5238
5239
5244
5244
5244
5244
5248
5247
5248
5250
5251
5253
5250
5250
5247
5248
5245
5244
5241
5242
5242
5242
5243
5243
5245
5244
5244
5244
5245
5243
5246
5249
5251
5254
5252
5253
5251
5250
5252
5252
5252
5253
5250
5253
5254
5254
5254
5253
5255
5257
5260
5261
5267
5268
5271
5271
5274
5280
5284
5287
5285
5280
5274
5266
5252
5240
5233
5226
5221
5219
5216
5213
5217
5216
5222
5217
5205
5206
5209
5203
5202
5206
5219
5230
5241
5247
5259
5261
5266
5277
5282
5286
5289
5292
5296
5300
5301
5303
5305
5304
5305
5302
5300
5301
5300
5305
5304
5309
5314
5319
5327
5334
5341
5346
5351
5354
5361
5366
5373
5379
5383
5389
5389
5395
5400
5404
5416
5434
5451
5467
5484
5504
5518
5520
5512
5496
5477
5457
5437
5417
5400
5383
5369
5362
5365
5373
5382
5390
5398
5402
5405
5405
5406
5408
5409
5406
5405
5401
5400
5398
5394
5393
5395
5396
5398
5396
5397
5396
5397
5396
5394
5391
5389
5388
5385
5384
5384
5383
5381
5380
5381
5386
5391
5396
5394
5385
5375
5365
5359
5355
5352
5353
5352
5351
5351
5351
5348
5350
5351
5356
5359
5363
5368
5368
5369
5372
5375
5374
5368
5364
5358
5358
5355
5356
5357
5357
5357
5356
5355
5350
5345
5339
5332
5327
5322
5323
5325
5326
5333
5337
5344
5345
5346
5342
5339
5330
5326
5319
5317
5313
5314
5314
5319
5323
5327
5329
5328
5326
5326
5325
5324
5324
5325
5324
5322
5321
5317
5313
5312
5310
5312
5313
5308
5295
5287
5278
5271
5268
5269
5273
5280
5285
5292
5301
5318
5359
5390
5401
5403
5399
5389
5371
5350
5336
5330
5326
5326
5321
5309
5294
5279
5272
5267
5268
5271
5275
5278
5280
5277
5277
5279
5276
5276
5278
5280
5279
5282
5276
5272
5269
5266
5265
5266
5263
5266
5268
5271
5275
5277
5281
5277
5277
5274
5274
5274
5269
5269
5263
5258
5255
5253
5250
5248
5247
5249
5250
5253
5253
5257
5259
5265
5267
5270
5272
5270
5266
5265
5263
5260
5256
5257
5256
5255
5255
5250
5251
5248
5247
5247
5246
5245
5244
5244
5243
5242
5240
5236
5237
5236
5235
5236
5239
5241
5241
5243
5243
5244
5242
5242
5243
5239
5240
5234
5234
5235
5233
5230
5226
5225
5222
5219
5220
5219
5218
5219
5221
5219
5219
5219
5216
5213
5214
5210
5210
5209
5208
5204
5203
5202
5202
5205
5204
5208
5208
5208
5209
5206
5207
5205
5204
5203
5204
5201
5196
5201
5195
5196
5199
5197
5195
5195
5196
5194
5191
5190
5192
5191
5193
5190
5191
5190
5188
5189
5189
5187
5183
5180
5177
5174
5172
5170
5169
5166
5164
5164
5166
5164
5166
5168
5165
5167
5169
5170
5172
5176
5176
5174
5172
5175
5171
5173
5168
5166
5165
5163
5160
5161
5161
5161
5159
5158
5157
5156
5153
5148
5147
5145
5142
5136
5136
5134
5138
5142
5142
5140
5137
5136
5133
5131
5132
5132
5132
5134
5135
5135
5138
5138
5139
5137
5136
5138
5139
5140
5138
5141
5143
5140
5139
5137
5138
5136
5133
5132
5129
5127
5124
5122
5118
5117
5115
5115
5115
5117
5114
5114
5113
5114
5114
5112
5115
5111
5112
5110
5111
5110
5109
5110
5110
5111
5108
5106
5097
5081
5070
5069
5089
5106
5122
5122
5161
5224
5287
5350
5413
5476
5539
5602
5665
5728
5791
5854
5917
5980
6043
6106
6096
6048
6026
6033
6021
6037
6100
6153
6189
6242
6305
6368
6431
6494
6557
6620
6683
6746
6809
6872
6935
6998
6968
6904
6840
6776
6712
6648
6584
6520
6456
6392
6328
6264
6200
6136
6072
6008
5944
5913
5906
5894
5877
5856
5839
5824
5804
5789
5776
5765
5753
5745
5737
5726
5720
5715
5702
5699
5685
5677
5667
5659
5650
5643
5640
5635
5629
5620
5621
5619
5619
5618
5613
5614
5613
5610
5611
5609
5608
5606
5606
5605
5604
5601
5597
5594
5593
5588
5584
5581
5579
5573
5568
5564
5558
5558
5550
5548
5543
5542
5540
5533
5531
5528
5530
5531
5538
5549
5561
5578
5597
5615
5637
5659
5681
5709
5737
5779
5842
5905
5968
5996
5995
5983
5969
5970
5973
5980
5984
5979
5979
6002
6037
6081
6130
6175
6198
6195
6190
6188
6180
6167
6180
6210
6237
6260
6278
6308
6340
6367
6374
6361
6394
6457
6520
6583
6624
6631
6656
6692
6727
6774
6837
6900
6963
7026
7065
7109
7172
7235
7261
7243
7208
7176
7148
7116
7101
7102
7120
7146
7166
7218
7281
7344
7407
7465
7528
7576
7547
7508
7472
7436
7372
7308
7255
7237
7251
7270
7300
7358
7406
7406
7400
7393
7374
7362
7361
7365
7361
7351
7349
7345
7342
7340
7344
7350
7358
7365
7370
7384
7396
7373
7366
7376
7395
7399
7401
7397
7391
7407
7470
7533
7525
7518
7539
7571
7604
7634
7659
7682
7704
7723
7739
7755
7767
7778
7798
7838
7857
7845
7811
7770
7760
7766
7781
7809
7842
7887
7929
7970
8005
8033
8050
8056
8065
8067
8067
8067
8071
8082
8096
8116
8137
8150
8157
8158
8146
8114
8070
8033
8010
8015
8020
8017
8023
8027
8035
8039
8049
8066
8084
8084
8084
8096
8110
8123
8131
8149
8162
8169
8178
8191
8216
8255
8286
8304
8314
8318
8326
8340
8353
8366
8382
8395
8410
8424
8444
8440
8422
8439
8482
8541
8604
8667
8705
8724
8743
8762
8773
8785
8794
8815
8825
8828
8820
8814
8815
8822
8824
8826
8828
8836
8840
8843
8847
8849
8856
8870
8881
8889
8900
8906
8917
8923
8932
8947
8953
8949
8940
8936
8929
8919
8901
8881
8863
8850
8839
8828
8812
8805
8800
8798
8788
8772
8769
8769
8769
8763
8755
8754
8748
8744
8741
8734
8728
8716
8703
8694
8691
8696
8709
8729
8737
8738
8732
8740
8752
8776
8802
8823
8840
8850
8850
8852
8849
8846
8845
8842
8845
8844
8847
8850
8856
8862
8865
8870
8873
8877
8875
8878
8882
8884
8896
8901
8908
8918
8933
8948
8950
8955
8961
8973
8979
8986
8994
9001
9007
9011
9017
9024
9027
9030
9031
9034
9035
9033
9036
9040
9043
9045
9048
9051
9052
9053
9053
9053
9057
9061
9066
9068
9069
9066
9073
9083
9088
9095
9101
9103
9106
9112
9123
9129
9130
9131
9130
9132
9145
9163
9176
9188
9194
9194
9189
9185
9181
9182
9182
9179
9162
9144
9132
9143
9167
9193
9205
9201
9189
9176
9163
9154
9147
9146
9146
9145
9139
9133
9139
9150
9168
9183
9206
9230
9252
9271
9284
9293
9302
9308
9319
9310
9282
9265
9247
9196
9132
9077
9037
9022
9027
9043
9069
9082
9079
9071
9075
9074
9081
9081
9081
9075
9068
9057
9045
9032
9015
8996
8979
8955
8933
8909
8880
8857
8833
8817
8803
8795
8787
8783
8780
8773
8765
8759
8753
8746
8737
8729
8724
8718
8711
8701
8696
8688
8684
8677
8673
8670
8662
8658
8653
8657
8658
8661
8666
8666
8665
8666
8667
8666
8658
8646
8631
8612
8585
8557
8526
8490
8465
8445
8430
8421
8413
8410
8413
8411
8412
8406
8402
8396
8397
8405
8412
8432
8462
8493
8513
8528
8534
8559
8577
8546
8533
8473
8409
8345
8284
8271
8263
8257
8247
8238
8232
8225
8222
8219
8212
8206
8192
8173
8136
8114
8086
8067
8044
8023
8004
7984
7965
7948
7933
7919
7903
7887
7871
7856
7845
7834
7824
7816
7814
7810
7799
7782
7749
7716
7694
7661
7628
7610
7607
7605
7600
7593
7587
7586
7583
7579
7567
7548
7530
7514
7510
7514
7525
7538
7537
7522
7495
7463
7445
7430
7421
7410
7404
7388
7376
7371
7366
7360
7352
7343
7333
7320
7310
7300
7288
7280
7274
7271
7265
7264
7257
7257
7254
7254
7257
7260
7261
7256
7253
7254
7251
7244
7243
7240
7236
7234
7233
7234
7236
7240
7238
7235
7228
7223
7208
7196
7179
7164
7149
7139
7124
7117
7111
7105
7103
7104
7105
7106
7105
7103
7104
7103
7097
7092
7087
7083
7077
7072
7066
7062
7056
7053
7048
7048
7048
7046
7045
7043
7041
7039
7036
7035
7032
7028
7027
7023
7021
7012
7001
6991
6975
6959
6944
6928
6914
6899
6890
6874
6865
6855
6845
6836
6830
6821
6812
6807
6797
6793
6786
6781
6777
6770
6767
6765
6758
6755
6748
6745
6740
6735
6734
6732
6725
6722
6718
6712
6708
6704
6701
6696
6692
6688
6683
6673
6662
6647
6632
6617
6601
6584
6573
6562
6546
6534
6525
6515
6505
6500
6494
6485
6480
6475
6466
6463
6454
6448
6440
6435
6428
6421
6415
6408
6406
6400
6393
6388
6385
6381
6376
6372
6367
6364
6359
6355
6352
6347
6343
6340
6332
6324
6312
6298
6288
6272
6261
6247
6238
6226
6214
6206
6198
6191
6184
6179
6170
6167
6161
6155
6151
6143
6138
6133
6126
6122
6118
6114
6107
6101
6099
6095
6092
6087
6079
6076
6073
6069
6064
6058
6055
6051
6047
6042
6037
6033
6024
6015
6003
5994
5982
5971
5962
5953
5946
5938
5934
5927
5922
5917
5912
5907
5900
5896
5889
5886
5881
5875
5871
5865
5859
5854
5849
5848
5842
5836
5832
5831
5825
5822
5816
5813
5809
5807
5803
5800
5795
5793
5789
5780
5773
5765
5752
5739
5729
5717
5707
5700
5691
5683
5679
5675
5668
5664
5661
5660
5660
5657
5649
5646
5642
5638
5630
5622
5610
5602
5603
5604
5604
5598
5589
5579
5573
5568
5566
5559
5552
5548
5547
5544
5547
5549
5556
5555
5556
5562
5573
5588
5601
5626
5647
5678
5716
5775
5838
5901
5964
6027
6090
6153
6216
6262
6277
6275
6271
6278
6289
6300
6317
6329
6337
6341
6345
6347
6345
6338
6333
6320
6314
6306
6297
6292
6279
6268
6264
6272
6276
6271
6262
6254
6247
6239
6232
6236
6236
6236
6232
6233
6232
6230
6232
6235
6241
6241
6233
6220
6205
6190
6177
6168
6161
6155
6149
6144
6137
6130
6127
6118
6112
6103
6095
6088
6084
6078
6073
6070
6067
6064
6060
6058
6057
6056
6050
6051
6047
6044
6037
6029
6025
6013
6006
5996
5987
5982
5973
5969
5965
5957
5953
5950
5947
5943
5943
5939
5937
5940
5934
5934
5932
5929
5929
5927
5926
5928
5924
5924
5925
5928
5928
5930
5928
5929
5930
5927
5930
5929
5929
5929
5929
5933
5933
5931
5931
5928
5927
5922
5919
5912
5909
5904
5897
5888
5882
5874
5866
5859
5854
5845
5841
5837
5833
5828
5825
5822
5821
5819
5818
5817
5817
5813
5815
5813
5817
5817
5818
5816
5812
5813
5816
5816
5818
5818
5819
5816
5813
5813
5810
5807
5804
5802
5801
5796
5798
5794
5787
5782
5773
5764
5758
5750
5743
5738
5733
5725
5722
5718
5712
5710
5708
5708
5706
5704
5703
5701
5702
5699
5700
5698
5697
5697
5697
5697
5697
5699
5698
5701
5700
5702
5705
5704
5703
5710
5709
5712
5713
5712
5715
5714
5716
5716
5715
5717
5715
5713
5705
5698
5692
5685
5679
5670
5665
5662
5659
5654
5651
5645
5643
5642
5645
5640
5638
5638
5637
5637
5635
5635
5636
5636
5635
5636
5635
5633
5633
5633
5632
5632
5629
5626
5628
5628
5627
5631
5630
5636
5634
5636
5638
5640
5638
5642
5643
5646
5651
5651
5653
5650
5650
5646
5644
5644
5640
5638
5634
5633
5632
5630
5631
5636
5635
5637
5639
5642
5644
5648
5648
5652
5658
5661
5666
5672
5678
5691
5703
5710
5714
5718
5724
5729
5732
5733
5737
5738
5735
5729
5723
5707
5688
5660
5637
5618
5610
5610
5614
5617
5622
5626
5627
5631
5631
5628
5614
5596
5582
5571
5570
5575
5569
5557
5539
5524
5520
5527
5537
5541
5541
5547
5547
5546
5545
5544
5545
5546
5550
5551
5552
5556
5551
5549
5546
5543
5542
5539
5538
5538
5542
5544
5547
5545
5541
5539
5535
5531
5528
5521
5516
5512
5504
5500
5498
5497
5496
5496
5496
5497
5496
5497
5495
5490
5501
5510
5525
5530
5527
5524
5520
5519
5515
5509
5505
5502
5499
5499
5494
5496
5495
5494
5496
5494
5495
5496
5498
5499
5499
5500
5501
5503
5503
5500
5498
5493
5487
5480
5475
5466
5464
5458
5459
5457
5457
5456
5457
5457
5456
5455
5451
5452
5448
5446
5443
5440
5441
5448
5459
5474
5481
5488
5488
5488
5483
5481
5477
5470
5466
5464
5461
5457
5453
5452
5450
5449
5452
5450
5450
5445
5438
5439
5434
5427
5420
5414
5412
5410
5408
5404
5402
5401
5396
5395
5395
5392
5392
5392
5389
5389
5389
5387
5384
5382
5379
5378
5375
5373
5375
5376
5378
5378
5378
5380
5380
5384
5381
5380
5380
5378
5375
5374
5375
5377
5371
5367
5362
5356
5350
5348
5343
5339
5336
5336
5336
5336
5335
5334
5331
5331
5332
5329
5337
5345
5350
5349
5347
5347
5345
5345
5341
5342
5341
5360
5423
5486
5549
5588
5581
5582
5585
5583
5553
5493
5459
5452
5449
5441
5421
5406
5396
5390
5382
5381
5380
5378
5376
5370
5364
5359
5359
5355
5357
5359
5360
5361
5359
5360
5357
5357
5350
5348
5346
5344
5342
5342
5342
5342
5347
5354
5361
5362
5363
5367
5367
5364
5363
5364
5363
5359
5356
5353
5351
5346
5341
5333
5330
5322
5318
5313
5313
5308
5308
5308
5305
5308
5308
5304
5302
5300
5294
5293
5291
5289
5288
5293
5295
5298
5300
5302
5305
5308
5308
5303
5299
5295
5292
5290
5288
5286
5285
5283
5277
5274
5271
5269
5267
5265
5260
5261
5262
5262
5259
5258
5255
5253
5251
5252
5252
5246
5239
5231
5221
5213
5206
5195
5191
5185
5185
5181
5170
5170
5176
5180
5188
5195
5197
5202
5209
5218
5231
5239
5245
5241
5240
5240
5241
5244
5248
5254
5263
5267
5270
5278
5279
5280
5282
5281
5288
5290
5291
5294
5297
5298
5299
5299
5301
5304
5310
5316
5323
5329
5333
5328
5325
5322
5320
5316
5318
5316
5318
5315
5313
5313
5311
5313
5313
5316
5319
5318
5321
5324
5331
5341
5353
5361
5368
5368
5368
5364
5359
5353
5350
5345
5345
5340
5337
5334
5333
5330
5329
5331
5331
5330
5333
5331
5331
5329
5328
5328
5329
5328
5326
5328
5327
5326
5328
5329
5328
5330
5326
5325
5323
5325
5325
5326
5327
5322
5322
5319
5318
5319
5318
5317
5319
5320
5322
5322
5317
5320
5318
5315
5311
5309
5307
5305
5304
5303
5306
5306
5309
5314
5316
5317
5320
5321
5324
5321
5323
5324
5323
5322
5321
5322
5321
5324
5318
5319
5315
5310
5309
5308
5306
5302
5301
5299
5296
5293
5292
5290
5289
5291
5291
5291
5293
5290
5291
5292
5289
5289
5291
5288
5289
5290
5289
5288
5288
5286
5287
5285
5287
5286
5286
5289
5288
5287
5289
5290
5292
5291
5293
5298
5296
5296
5296
5293
5292
5290
5286
5286
5285
5281
5283
5281
5276
5274
5269
5265
5264
5260
5258
5258
5255
5253
5254
5247
5248
5249
5247
5244
5242
5241
5239
5238
5239
5234
5230
5227
5224
5220
5216
5211
5210
5207
5208
5208
5208
5208
5211
5213
5213
5214
5211
5214
5210
5209
5207
5202
5199
5199
5196
5194
5192
5190
5187
5188
5185
5184
5181
5178
5173
5170
5167
5164
5162
5159
5155
5157
5153
5152
5155
5151
5150
5149
5148
5146
5147
5148
5150
5151
5151
5157
5158
5163
5165
5172
5177
5177
5179
5179
5180
5180
5182
5179
5178
5174
5174
5170
5171
5165
5163
5159
5157
5152
5151
5148
5148
5147
5147
5145
5146
5146
5146
5146
5146
5151
5153
5158
5162
5168
5177
5183
5192
5208
5225
5237
5254
5263
5270
5277
5287
5294
5298
5308
5314
5319
5325
5333
5335
5340
5365
5397
5414
5430
5442
5448
5445
5445
5437
5430
5427
5421
5417
5412
5403
5397
5390
5384
5378
5374
5370
5366
5364
5362
5360
5356
5355
5351
5348
5347
5344
5341
5337
5334
5334
5333
5331
5329
5327
5326
5326
5325
5326
5324
5322
5318
5315
5309
5305
5302
5300
5297
5294
5292
5290
5289
5287
5284
5281
5277
5278
5274
5273
5269
5266
5269
5264
5264
5264
5264
5262
5262
5264
5262
5263
5258
5256
5255
5256
5254
5253
5255
5255
5253
5257
5252
5249
5246
5242
5241
5237
5236
5232
5233
5231
5227
5228
5223
5218
5215
5214
5213
5212
5213
5207
5207
5203
5204
5204
5200
5200
5196
5195
5193
5191
5191
5188
5187
5186
5183
5180
5177
5175
5170
5166
5164
5164
5162
5160
5162
5159
5159
5159
5154
5152
5148
5145
5142
5139
5137
5132
5129
5126
5124
5121
5115
5113
5111
5110
5107
5106
5102
5101
5102
5098
5097
5096
5095
5095
5093
5091
5090
5088
5088
5087
5084
5080
5078
5076
5075
5071
5068
5065
5067
5066
5065
5066
5067
5065
5062
5061
5060
5057
5050
5051
5048
5043
5041
5037
5034
5028
5027
5024
5022
5019
5014
5011
5011
5010
5009
5005
5007
5004
5018
5030
5045
5058
5073
5088
5102
5115
5128
5145
5158
5170
5185
5198
5213
5226
5237
5251
5264
5278
5292
5308
5320
5333
5347
5358
5369
5381
5390
5402
5410
5424
5434
5443
5438
5448
5458
5469
5480
5492
5504
5518
5530
5542
5555
5567
5580
5591
5605
5613
5627
5641
5653
5664
5676
5692
5703
5716
5728
5741
5756
5770
5782
5794
5804
5818
5829
5842
5854
5867
5876
5886
5892
5900
5904
5909
5913
5914
5918
5922
5924
5928
5935
5937
5942
5949
5962
5971
5984
5998
6009
6019
6027
6034
6039
6044
6047
6048
6049
6044
6038
6034
6032
6027
6029
6026
6026
6028
6028
6025
6021
6017
6016
6014
6013
6011
6011
6015
6019
6026
6027
6025
6023
6020
6021
6021
6021
6027
6032
6038
6042
6043
6044
6048
6049
6054
6053
6059
6063
6065
6071
6074
6081
6085
6090
6089
6090
6085
6084
6084
6081
6079
6077
6075
6071
6071
6067
6069
6068
6062
6060
6057
6057
6056
6055
6055
6055
6052
6049
6047
6044
6045
6042
6037
6041
6034
6034
6031
6030
6029
6030
6032
6031
6028
6030
6028
6029
6027
6022
6019
6021
6031
6036
6037
6039
6064
6109
6171
6234
6297
6360
6423
6486
6549
6612
6675
6738
6801
6864
6856
6814
6785
6760
6735
6720
6727
6745
6768
6789
6812
6827
6825
6823
6815
6800
6785
6759
6728
6702
6680
6661
6648
6641
6637
6636
6633
6625
6614
6606
6593
6583
6575
6569
6560
6555
6551
6554
6555
6556
6556
6553
6546
6538
6530
6520
6510
6501
6498
6492
6490
6491
6490
6491
6488
6488
6485
6478
6478
6474
6476
6480
6485
6489
6493
6496
6498
6501
6500
6499
6497
6494
6487
6481
6474
6476
6473
6474
6471
6473
6473
6474
6474
6477
6477
6476
6473
6470
6468
6463
6458
6454
6449
6448
6446
6447
6440
6441
6432
6431
6427
6426
6421
6416
6412
6411
6412
6413
6416
6414
6415
6415
6413
6412
6410
6407
6410
6413
6417
6418
6423
6422
6421
6417
6408
6405
6401
6398
6397
6392
6391
6384
6382
6379
6378
6376
6374
6377
6377
6380
6379
6380
6376
6372
6370
6368
6369
6368
6365
6364
6361
6360
6356
6352
6348
6346
6348
6345
6349
6349
6351
6359
6356
6362
6363
6359
6354
6350
6351
6361
6379
6402
6420
6425
6417
6399
6386
6384
6378
6369
6361
6358
6356
6352
6351
6351
6349
6349
6352
6353
6354
6358
6357
6356
6353
6346
6341
6335
6334
6330
6326
6325
6324
6323
6322
6320
6323
6323
6321
6315
6310
6309
6307
6302
6299
6299
6300
6301
6303
6304
6302
6308
6301
6299
6298
6301
6296
6297
6302
6306
6306
6306
6308
6307
6305
6303
6302
6294
6294
6295
6294
6290
6291
6290
6293
6290
6290
6291
6293
6295
6302
6299
6293
6280
6275
6269
6253
6250
6250
6255
6261
6270
6276
6277
6278
6280
6284
6278
6284
6292
6304
6304
6296
6274
6243
6240
6243
6258
6271
6276
6280
6288
6299
6307
6317
6330
6345
6358
6370
6391
6411
6433
6452
6467
6483
6498
6506
6514
6518
6524
6527
6528
6529
6524
6517
6505
6498
6501
6520
6532
6556
6569
6570
6562
6565
6570
6586
6605
6622
6633
6639
6649
6659
6660
6662
6662
6661
6651
6633
6622
6637
6653
6668
6654
6623
6611
6616
6620
6617
6616
6624
6630
6627
6623
6617
6610
6610
6621
6643
6671
6706
6735
6755
6784
6805
6822
6843
6852
6865
6877
6880
6889
6901
6915
6929
6933
6952
6980
7011
7040
7074
7103
7131
7159
7184
7201
7221
7272
7335
7398
7461
7524
7587
7650
7713
7776
7839
7902
7965
8028
8091
8154
8217
8280
8343
8406
8469
8532
8595
8658
8721
8784
8847
8910
8973
9036
9099
9162
9225
9288
9351
9414
9477
9540
9603
9666
9729
9792
9855
9918
9981
10044
10107
10170
10233
10296
10359
10422
10485
10548
10611
10674
10737
10800
10863
10926
10989
11052
11115
11178
11241
11304
11367
11430
11493
11556
11619
11682
11745
11808
11871
11934
11922
11858
11794
11730
11666
11602
11538
11474
11410
11346
11282
11218
11154
11090
11026
10962
10898
10834
10770
10706
10642
10578
10514
10450
10386
10322
10258
10194
10130
10066
10017
10080
10143
10206
10269
10332
10325
10277
10213
10149
10090
10026
9962
9898
9834
9770
9706
9665
9628
9578
9514
9450
9463
9427
9408
9397
9386
9375
9356
9352
9352
9366
9397
9426
9409
9384
9382
9373
9365
9369
9358
9375
9407
9449
9477
9508
9538
9536
9569
9632
9695
9758
9819
9876
9939
10002
10065
10128
10191
10254
10317
10380
10443
10447
10396
10420
10424
10439
10420
10433
10459
10455
10450
10424
10406
10397
10376
10353
10327
10281
10217
10153
10089
10025
9961
9897
9833
9769
9705
9641
9577
9513
9500
9495
9493
9503
9527
9537
9540
9540
9549
9554
9558
9565
9589
9614
9629
9628
9620
9597
9558
9520
9483
9450
9420
9396
9379
9361
9341
9325
9316
9302
9298
9310
9331
9356
9372
9384
9395
9397
9397
9394
9382
9369
9341
9300
9252
9205
9163
9133
9099
9067
9038
8996
8959
8919
8900
8876
8861
8857
8871
8853
8859
8875
8902
8929
8935
8871
8807
8743
8679
8689
8690
8657
8635
8628
8631
8637
8630
8601
8580
8545
8503
8486
8483
8465
8450
8450
8444
8426
8416
8407
8402
8389
8380
8371
8361
8352
8343
8319
8285
8252
8247
8256
8250
8226
8209
8201
8177
8194
8177
8173
8187
8166
8118
8089
8083
8072
8049
8042
8041
8041
8032
8029
8029
8022
8015
8011
7999
7978
7973
7974
7976
7964
7953
7969
7979
7976
7976
7957
7946
7949
7935
7885
7861
7867
7855
7848
7861
7867
7862
7846
7835
7833
7819
7803
7796
7779
7764
7753
7746
7730
7717
7706
7703
7694
7691
7700
7707
7716
7715
7710
7710
7724
7755
7774
7769
7760
7754
7764
7775
7784
7770
7743
7722
7706
7685
7661
7653
7666
7683
7692
7690
7692
7681
7668
7664
7664
7661
7657
7649
7636
7634
7630
7626
7622
7615
7610
7607
7596
7587
7581
7577
7570
7554
7543
7542
7531
7518
7513
7496
7472
7459
7458
7441
7422
7400
7394
7409
7423
7420
7397
7386
7379
7384
7375
7366
7361
7355
7351
7345
7337
7325
7314
7304
7299
7288
7286
7277
7273
7271
7262
7254
7243
7235
7231
7229
7222
7223
7216
7218
7214
7213
7215
7218
7218
7226
7230
7234
7241
7248
7254
7259
7258
7265
7269
7273
7279
7281
7282
7282
7281
7280
7278
7280
7275
7274
7270
7257
7251
7241
7229
7218
7211
7201
7192
7185
7176
7169
7159
7153
7150
7145
7137
7138
7134
7131
7131
7129
7126
7128
7128
7125
7126
7123
7119
7117
7110
7105
7100
7106
7111
7117
7119
7120
7112
7105
7121
7146
7169
7193
7215
7242
7276
7316
7350
7385
7424
7480
7515
7537
7557
7561
7548
7537
7533
7524
7510
7504
7494
7479
7477
7465
7473
7491
7528
7591
7654
7703
7732
7755
7776
7783
7795
7814
7823
7834
7860
7889
7902
7895
7901
7910
7937
7966
7991
8019
8050
8094
8138
8184
8216
8262
8309
8350
8395
8431
8480
8520
8564
8622
8685
8748
8811
8874
8937
9000
9063
9126
9189
9252
9315
9378
9441
9504
9567
9630
9693
9756
9819
9882
9945
10008
10071
10007
9943
9879
9815
9751
9687
9623
9559
9495
9431
9367
9303
9274
9245
9217
9186
9167
9139
9115
9090
9050
9014
8955
8891
8827
8763
8699
8680
8677
8668
8652
8619
8597
8572
8546
8507
8474
8449
8428
8406
8392
8386
8378
8363
8352
8341
8331
8323
8312
8292
8278
8260
8245
8229
8209
8181
8169
8153
8138
8124
8108
8089
8075
8064
8051
8034
8019
8011
8001
7993
7985
7983
7972
7969
7958
7950
7946
7939
7936
7937
7935
7934
7929
7931
7924
7927
7932
7932
7931
7930
7929
7931
7931
7934
7930
7931
7924
7924
7925
7921
7919
7916
7910
7904
7899
7890
7881
7875
7867
7861
7859
7853
7850
7840
7836
7833
7830
7835
7840
7848
7852
7855
7855
7857
7861
7866
7882
7895
7913
7930
7938
7944
7947
7947
7941
7938
7936
7940
7962
7995
8035
8074
8093
8087
8075
8075
8099
8134
8171
8187
8179
8155
8119
8085
8043
8021
8006
7990
7971
7961
7922
7917
7917
7937
7962
7982
8002
8014
8017
8021
8019
8013
8009
8002
8010
8018
8035
8052
8066
8084
8108
8129
8142
8148
8148
8150
8155
8166
8175
8177
8185
8185
8192
8184
8178
8159
8143
8136
8127
8109
8093
8081
8079
8082
8081
8074
8060
8049
8043
8038
8040
8036
8024
8017
8013
8016
8012
7998
7982
7971
7964
7960
7953
7938
7933
7927
7918
7910
7894
7882
7872
7864
7857
7858
7864
7861
7866
7860
7858
7858
7862
7867
7877
7892
7898
7904
7916
7932
7953
7976
7996
8015
8028
8045
8061
8084
8100
8119
8143
8164
8192
8225
8270
8314
8353
8402
8435
8460
8482
8508
8547
8581
8620
8666
8702
8743
8784
8832
8879
8935
8976
8998
9011
9046
9070
9082
9078
9071
9070
9098
9131
9176
9230
9280
9339
9398
9443
9471
9498
9493
9480
9469
9471
9477
9477
9482
9504
9532
9563
9598
9633
9659
9683
9669
9609
9574
9533
9469
9411
9378
9375
9369
9365
9336
9330
9328
9304
9297
9310
9364
9344
9302
9270
9206
9156
9185
9248
9281
9263
9256
9277
9316
9329
9340
9345
9354
9362
9368
9380
9392
9390
9387
9382
9381
9387
9401
9419
9427
9427
9417
9414
9411
9412
9406
9404
9402
9397
9397
9397
9395
9402
9401
9409
9418
9433
9447
9448
9448
9428
9403
9382
9351
9324
9299
9281
9263
9256
9243
9224
9207
9192
9174
9155
9143
9133
9125
9127
9121
9116
9116
9113
9111
9113
9110
9106
9105
9105
9104
9103
9100
9093
9098
9095
9095
9091
9089
9086
9083
9083
9080
9080
9079
9074
9077
9071
9072
9069
9061
9056
9048
9040
9032
9033
9023
9027
9023
9026
9026
9023
9022
9019
9013
9008
9008
9002
8990
8992
8990
8986
8979
8976
8971
8966
8962
8956
8956
8950
8954
8959
8967
8971
8978
8979
8981
8984
8988
8990
8992
8993
9000
9001
9006
9008
9009
9014
9015
9016
9017
9018
9016
9010
9004
8998
8992
8987
8981
8971
8965
8961
8959
8952
8947
8950
8947
8946
8945
8946
8950
8955
8961
8976
8990
9004
9015
9029
9038
9047
9051
9063
9082
9120
9169
9209
9224
9232
9228
9218
9205
9187
9165
9150
9136
9126
9114
9111
9110
9105
9096
9075
9064
9066
9085
9102
9121
9128
9138
9150
9179
9215
9237
9251
9246
9242
9225
9225
9227
9228
9215
9190
9167
9135
9107
9089
9079
9078
9092
9116
9131
9151
9175
9190
9179
9159
9151
9140
9120
9097
9084
9065
9031
9000
8973
8931
8897
8857
8820
8844
8822
8809
8800
8807
8812
8816
8812
8817
8823
8824
8824
8813
8805
8798
8795
8796
8791
8786
8755
8728
8720
8724
8731
8742
8745
8777
8814
8872
8935
8998
9061
9124
9187
9250
9313
9376
9439
9502
9565
9628
9691
9754
9817
9880
9943
10006
10069
10132
10195
10131
10067
10003
9939
9875
9811
9747
9683
9619
9555
9491
9427
9363
9299
9235
9171
9122
9123
9138
9156
9150
9124
9135
9136
9118
9107
9084
9068
9064
9058
9056
9046
9039
9034
9034
9038
9028
9020
9011
8993
8969
8944
8922
8901
8869
8846
8824
8848
8836
8825
8821
8821
8821
8827
8834
8831
8834
8835
8840
8851
8852
8856
8855
8858
8861
8864
8869
8865
8856
8856
8866
8882
8883
8881
8877
8868
8863
8855
8853
8846
8843
8835
8834
8828
8820
8820
8806
8792
8780
8771
8762
8756
8758
8772
8799
8830
8859
8891
8913
8925
8944
8954
8966
8983
9009
9048
9101
9164
9227
9290
9353
9416
9479
9542
9605
9668
9731
9794
9857
9920
9983
10046
10109
10172
10235
10298
10361
10424
10487
10550
10613
10676
10739
10802
10865
10928
10991
11054
11117
11165
11157
11115
11078
11117
11180
11243
11306
11369
11432
11447
11383
11319
11255
11191
11127
11063
10999
10935
10998
11061
11124
11187
11250
11313
11376
11439
11502
11565
11628
11691
11754
11817
11880
11943
12006
12069
12132
12195
12258
12194
12130
12066
12002
11938
11874
11810
11746
11682
11618
11554
11490
11426
11362
11298
11234
11170
11106
11042
10978
10914
10850
10786
10722
10658
10594
10657
10720
10783
10846
10909
10972
11035
11098
11161
11224
11287
11350
11413
11349
11285
11221
11218
11281
11309
11246
11182
11118
11054
10990
10926
10862
10798
10741
10804
10867
10930
10945
10912
10891
10873
10844
10824
10827
10833
10830
10844
10849
10869
10886
10884
10846
10788
10724
10660
10596
10532
10468
10404
10375
10398
10420
10434
10439
10440
10444
10440
10475
10462
10433
10386
10322
10258
10194
10140
10076
10029
9993
10050
10110
10146
10168
10204
10250
10306
10369
10432
10495
10558
10621
10684
10747
10810
10873
10936
10999
11062
11125
11188
11251
11314
11368
11304
11240
11176
11112
11048
10984
10926
10935
10871
10807
10743
10679
10615
10551
10494
10455
10433
10420
10429
10440
10457
10486
10513
10551
10593
10636
10683
10727
10774
10804
10837
10857
10891
10918
10950
10990
11018
11044
11067
11095
11105
11089
11055
11013
10987
10962
10957
10946
10925
10894
10833
10793
10776
10767
10754
10716
10657
10594
10552
10517
10479
10449
10418
10383
10344
10312
10290
10276
10251
10248
10247
10249
10262
10269
10284
10308
10320
10334
10339
10339
10342
10334
10323
10305
10272
10248
10237
10243
10216
10189
10148
10097
10155
10141
10122
10090
10062
10045
10038
10034
10017
10009
10005
10009
10026
10046
10052
10043
10037
10050
10047
10020
9990
9988
10024
10085
10148
10211
10271
10299
10310
10317
10328
10345
10381
10444
10507
10570
10633
10696
10759
10822
10885
10948
11011
10987
10927
10863
10799
10735
10671
10734
10797
10860
10923
10986
11049
11112
11175
11238
11301
11364
11427
11490
11468
11404
11439
11465
11515
11525
11500
11500
11544
11590
11636
11627
11627
11606
11589
11541
11514
11482
11448
11424
11389
11342
11288
11248
11204
11153
11097
11055
11023
10965
10911
10884
10855
10839
10840
10815
10769
10753
10759
10722
10785
10837
10848
10851
10856
10855
10836
10810
10780
10742
10715
10692
10677
10651
10630
10597
10575
10546
10516
10492
10463
10439
10418
10386
10355
10324
10295
10259
10199
10172
10138
10114
10078
10141
10147
10169
10201
10221
10247
10269
10282
10299
10313
10330
10334
10347
10360
10375
10374
10378
10378
10381
10362
10359
10352
10355
10355
10345
10344
10358
10397
10448
10511
10570
10633
10696
10759
10822
10885
10948
11011
11074
11137
11200
11263
11326
11389
11452
11515
11578
11638
11648
11659
11657
11649
11641
11636
11634
11697
11760
11823
11886
11949
12012
12075
12138
12201
12264
12327
12390
12453
12516
12579
12642
12705
12768
12831
12894
12957
13020
13083
13146
13209
13272
13335
13398
13461
13524
13587
13650
13713
13776
13839
13902
13965
14028
14091
14154
14217
14280
14343
14406
14469
14532
14595
14658
14721
14784
14847
14910
14973
15036
15099
15162
15225
15288
15351
15414
15477
15540
15603
15666
15729
15792
15855
15918
15981
16044
16107
16170
16233
16296
16359
16422
16485
16548
16611
16674
16737
16800
16863
16926
16989
17052
17115
17178
17241
17304
17367
17430
17493
17556
17619
17682
17745
17808
17871
17934
17997
18060
18123
18186
18249
18312
18375
18438
18501
18564
18627
18690
18753
18816
18879
18942
19005
19068
19131
19194
19257
19320
19383
19446
19509
19572
19635
19698
19761
19824
19887
19950
20013
20076
20139
20202
20265
20306
20305
20304
20303
20303
20303
20302
20302
20302
20301
20301
20300
20300
20300
20300
20300
20299
20300
20298
20300
20300
20300
20299
20356
20355
20355
20354
20354
20353
20351
20350
20349
20349
20347
20345
20343
20340
20337
20334
20331
20328
20324
20319
20317
20312
20309
20306
20303
20299
20297
20293
20290
20287
20283
20278
20273
20266
20261
20254
20248
20240
20229
20219
20207
20194
20182
20167
20152
20138
20115
20102
20087
20070
20053
20025
19961
19972
19941
19932
19868
19804
19740
19676
19612
19548
19484
19420
19356
19292
19228
19164
19100
19036
18972
18908
18844
18780
18716
18652
18588
18524
18460
18396
18332
18268
18204
18140
18076
18012
17948
17884
17820
17756
17692
17628
17564
17500
17436
17372
17308
17244
17180
17116
17052
16988
16924
16860
16796
16732
16668
16604
16540
16476
16412
16348
16284
16220
16156
16092
16028
15964
15900
15836
15772
15708
15644
15580
15516
15452
15388
15324
15260
15196
15132
15068
15004
14940
14876
14812
14748
14684
14620
14556
14492
14428
14364
14300
14236
14172
14108
14044
13980
13916
13852
13788
13724
13660
13596
13532
13468
13404
13340
13276
13212
13148
13084
13020
12956
12892
12828
12764
12700
12636
12572
12508
12444
12380
12316
12252
12188
12124
12060
11996
11932
11868
11804
11740
11676
11612
11548
11484
11420
11356
11292
11228
11164
11100
11036
10972
10908
10844
10780
10716
10652
10588
10524
10460
10396
10332
10268
10204
10140
10076
10012
9948
9884
9820
9756
9692
9745
9808
9871
9934
9997
10060
10123
10186
10249
10312
10375
10438
10501
10564
10627
10690
10753
10816
10879
10942
11005
11068
11131
11194
11257
11320
11383
11446
11509
11572
11635
11698
11761
11824
11887
11950
12013
12076
12139
12202
12265
12328
12391
12454
12517
12580
12643
12706
12769
12832
12895
12958
13021
13084
13147
13210
13273
13336
13399
13462
13525
13588
13651
13714
13777
13840
13903
13966
14029
14092
14155
14218
14281
14344
14407
14470
14533
14596
14637
14606
14547
14483
14419
14355
14291
14227
14163
14099
14035
13971
13907
13865
13822
13797
13786
13783
13754
13723
13719
13692
13714
13710
13748
13775
13783
13750
13764
13747
13758
13791
13802
13814
13825
13817
13756
13707
13707
13749
13763
13758
13768
13765
13735
13681
13658
13644
13588
13524
13460
13396
13357
13358
13346
13287
13254
13235
13214
13206
13197
13192
13188
13184
13165
13168
13181
13169
13118
13057
13059
13099
13107
13091
13060
13068
13067
13047
12983
12938
12933
12922
12899
12862
12850
12812
12796
12790
12794
12803
12794
12774
12759
12776
12759
12718
12654
12590
12526
12462
12398
12366
12341
12332
12332
12310
12294
12291
12287
12283
12286
12278
12278
12266
12271
12283
12248
12260
12285
12272
12239
12231
12252
12260
12269
12244
12209
12202
12213
12196
12145
12081
12017
11993
12007
11995
11941
11936
11872
11810
11795
11820
11812
11787
11732
11688
11624
11560
11496
11432
11385
11342
11323
11324
11318
11289
11236
11209
11174
11165
11150
11156
11117
11132
11103
11072
11047
11015
10992
10991
10974
10961
10940
10919
10892
10881
10847
10812
10767
10720
10699
10684
10642
10614
10597
10556
10492
10428
10392
10331
10293
10248
10184
10120
10056
9992
9928
9864
9800
9736
9672
9608
9544
9480
9416
9352
9288
9224
9160
9096
9032
8968
8904
8840
8794
8732
8668
8611
8557
8513
8456
8393
8329
8268
8206
8153
8105
8077
8047
8030
8018
8011
8011
7995
7964
7928
7880
7848
7810
7772
7734
7692
7644
7600
7555
7517
7500
7486
7474
7465
7461
7457
7454
7448
7441
7435
7427
7414
7398
7387
7374
7359
7350
7332
7327
7308
7290
7271
7246
7232
7219
7193
7188
7172
7156
7147
7140
7127
7115
7111
7097
7089
7084
7079
7070
7065
7056
7055
7047
7036
7027
7019
7012
7007
7013
7017
7019
7024
7022
7012
7002
6997
6989
6993
6985
6978
6967
6959
6949
6931
6919
6906
6894
6886
6873
6868
6868
6863
6855
6849
6843
6835
6828
6834
6835
6830
6832
6828
6817
6811
6811
6812
6824
6836
6845
6837
6829
6819
6811
6810
6807
6808
6811
6806
6797
6802
6808
6819
6822
6815
6810
6817
6814
6811
6808
6804
6796
6782
6762
6741
6736
6723
6716
6711
6710
6707
6699
6687
6688
6676
6664
6655
6649
6651
6644
6635
6631
6622
6618
6611
6599
6596
6590
6590
6593
6593
6588
6591
6591
6582
6586
6587
6572
6563
6559
6566
6576
6603
6618
6609
6599
6593
6579
6579
6567
6556
6554
6543
6538
6533
6532
6535
6524
6518
6511
6501
6500
6500
6499
6494
6494
6487
6481
6471
6465
6453
6445
6435
6426
6422
6399
6377
6361
6349
6344
6339
6341
6348
6348
6345
6334
6316
6303
6293
6284
6292
6300
6300
6303
6307
6306
6300
6292
6278
6259
6228
6200
6178
6156
6137
6121
6102
6087
6068
6050
6031
6015
6003
5984
5972
5967
5958
5943
5929
5894
5867
5841
5803
5770
5708
5658
5606
5577
5551
5535
5520
5503
5484
5473
5459
5453
5427
5417
5415
5404
5391
5386
5374
5358
5340
5324
5302
5279
5254
5235
5210
5191
5166
5143
5125
5119
5108
5094
5085
5080
5065
5054
5043
5028
5021
5001
4981
4959
5022
5085
5148
5211
5274
5337
5400
5463
5526
5589
5652
5715
5778
5841
5904
5967
6030
6093
6156
6219
6282
6345
6408
6471
6534
6597
6660
6723
6786
6849
6912
6975
7038
7101
7164
7227
7290
7353
7416
7479
7542
7605
7668
7731
7794
7857
7920
7983
8046
8109
8172
8235
8298
8313
8305
8308
8324
8360
8399
8404
8387
8381
8377
8366
8365
8374
8366
8380
8404
8410
8423
8436
8416
8412
8384
8389
8422
8446
8472
8483
8505
8517
8540
8552
8559
8569
8602
8640
8687
8723
8755
8780
8798
8834
8876
8890
8918
8941
8952
8959
8969
8972
8968
8969
8965
8964
8964
8976
8981
8987
8988
8990
8997
9010
9019
9029
9038
9051
9051
9062
9071
9090
9107
9116
9129
9146
9158
9156
9149
9153
9153
9177
9189
9230
9265
9291
9314
9340
9378
9403
9430
9451
9474
9502
9527
9543
9555
9569
9575
9595
9624
9655
9686
9703
9720
9713
9750
9786
9818
9857
9899
9940
9978
10022
10049
10080
10104
10120
10141
10168
10189
10215
10238
10251
10270
10286
10304
10336
10373
10405
10430
10467
10501
10532
10558
10590
10615
10647
10699
10739
10775
10799
10823
10841
10859
10888
10904
10923
10950
10969
10991
11017
11052
11092
11119
11146
11168
11189
11221
11245
11275
11292
11305
11312
11327
11337
11341
11339
11341
11347
11365
11375
11399
11414
11439
11478
11535
11598
11661
11724
11787
11850
11913
11976
12039
12102
12165
12228
12291
12354
12417
12480
12543
12606
12669
12732
12795
12858
12921
12984
13047
13110
13173
13236
13299
13362
13425
13488
13551
13614
13677
13740
13803
13866
13929
13992
14055
14118
14181
14241
14191
14127
14063
14041
13995
13953
13962
14008
14050
14077
14085
14065
14038
13993
13962
13915
13931
13966
13967
14016
14066
14108
14122
14122
14106
14077
14043
14052
14115
14178
14241
14304
14367
14430
14493
14556
14619
14682
14695
14669
14696
14737
14732
14698
14691
14679
14655
14645
14581
14517
14453
14389
14325
14303
14295
14254
14190
14126
14062
13998
13934
13870
13806
13742
13678
13614
13550
13486
13422
13358
13294
13230
13166
13102
13038
12974
12910
12846
12782
12718
12654
12590
12526
12462
12398
12334
12270
12206
12142
12078
12014
11950
11886
11822
11758
11694
11675
11738
11801
11864
11927
11990
12053
12116
12179
12242
12305
12368
12431
12494
12557
12620
12683
12746
12809
12872
12935
12998
13061
13124
13187
13250
13302
13238
13174
13110
13046
12982
12918
12854
12790
12726
12662
12598
12534
12470
12406
12342
12278
12214
12150
12086
12022
11958
11894
11830
11766
11702
11638
11574
11510
11446
11382
11318
11254
11190
11126
11062
10998
10934
10870
10806
10742
10678
10614
10550
10486
10422
10358
10294
10230
10166
10102
10038
9974
9910
9846
9782
9731
9750
9755
9770
9809
9837
9900
9963
10026
10089
10152
10215
10278
10341
10404
10467
10462
10418
10404
10410
10436
10486
10549
10612
10675
10694
10630
10566
10502
10438
10374
10310
10251
10281
10344
10407
10470
10498
10450
10438
10447
10436
10459
10522
10585
10648
10711
10774
10837
10773
10709
10645
10581
10517
10580
10643
10706
10677
10613
10549
10485
10421
10357
10293
10241
10304
10309
10282
10259
10258
10248
10239
10175
10111
10047
9983
9922
9985
10048
10085
10085
10061
10044
10075
10048
9984
9920
9856
9792
9728
9664
9600
9536
9472
9408
9368
9348
9326
9315
9324
9331
9271
9212
9199
9207
9188
9143
9111
9097
9085
9096
9128
9160
9211
9274
9337
9395
9397
9374
9374
9357
9354
9358
9370
9379
9394
9413
9440
9449
9448
9436
9416
9383
9329
9289
9281
9258
9245
9241
9232
9200
9170
9129
9090
9069
9078
9113
9134
9128
9123
9101
9072
9049
9023
8985
8949
8919
8917
8932
8953
8984
9002
9024
9041
9059
9082
9120
9150
9165
9185
9218
9255
9299
9341
9394
9444
9490
9527
9555
9579
9611
9633
9634
9633
9637
9653
9680
9719
9737
9742
9743
9737
9725
9727
9726
9736
9749
9767
9793
9814
9815
9827
9849
9868
9872
9896
9929
9968
10014
10047
10095
10155
10218
10281
10344
10407
10470
10533
10596
10659
10722
10785
10848
10911
10974
11037
11100
11163
11226
11279
11215
11151
11087
11023
10959
10895
10831
10767
10703
10639
10575
10511
10447
10383
10319
10255
10191
10127
10063
9999
9935
9871
9807
9743
9679
9615
9551
9487
9423
9359
9295
9231
9167
9103
9084
9064
9050
9047
9055
9080
9143
9206
9269
9332
9395
9458
9521
9584
9647
9710
9773
9836
9899
9962
10025
10088
10151
10214
10277
10329
10307
10270
10236
10210
10200
10171
10121
10071
10018
9980
9941
9917
9908
9866
9802
9738
9674
9610
9546
9482
9418
9354
9299
9287
9284
9295
9306
9303
9289
9285
9277
9279
9257
9224
9161
9097
9044
9009
8994
8961
8917
8872
8809
8802
8784
8784
8783
8770
8755
8734
8717
8709
8716
8730
8739
8739
8761
8824
8887
8894
8906
8958
9014
9038
9046
9047
9044
9025
9000
8984
8971
8952
8939
8931
8932
8942
8954
9003
9066
9129
9192
9255
9318
9381
9439
9456
9486
9493
9482
9459
9453
9450
9440
9427
9403
9391
9390
9386
9371
9346
9311
9280
9257
9235
9214
9201
9192
9187
9178
9177
9181
9183
9187
9183
9179
9175
9179
9179
9190
9210
9233
9256
9282
9307
9320
9324
9362
9419
9458
9464
9441
9400
9352
9303
9253
9200
9157
9133
9098
9058
9023
8988
8962
8951
8946
8930
8903
8878
8825
8806
8744
8683
8650
8654
8654
8663
8669
8670
8657
8654
8652
8656
8664
8667
8669
8667
8673
8667
8656
8654
8641
8622
8596
8567
8541
8513
8482
8457
8432
8394
8348
8322
8316
8305
8296
8292
8293
8311
8332
8341
8345
8356
8346
8344
8348
8374
8426
8478
8537
8596
8659
8722
8785
8848
8911
8974
9037
9100
9163
9226
9205
9141
9077
9013
8949
8966
8996
8992
8993
8996
8972
8936
8894
8869
8849
8800
8736
8672
8642
8622
8609
8654
8703
8766
8829
8892
8890
8863
8799
8735
8671
8607
8592
8563
8521
8481
8458
8444
8447
8510
8573
8636
8699
8762
8825
8888
8951
9014
9077
9140
9203
9266
9329
9392
9455
9518
9581
9644
9707
9643
9579
9515
9451
9387
9323
9259
9195
9131
9067
9005
8941
8877
8813
8791
8764
8744
8725
8716
8684
8660
8637
8617
8594
8575
8567
8561
8543
8522
8520
8559
8608
8607
8565
8529
8505
8480
8416
8352
8288
8224
8160
8096
8032
7968
7911
7974
8007
7971
7929
7927
7957
7998
8061
8124
8187
8250
8313
8376
8439
8502
8565
8628
8691
8754
8817
8880
8943
9006
9069
9132
9195
9258
9321
9384
9447
9383
9319
9255
9191
9127
9063
8999
8935
8871
8807
8743
8679
8705
8768
8825
8843
8900
8960
8993
9048
9111
9174
9237
9300
9363
9426
9489
9552
9615
9678
9741
9804
9867
9930
9993
10056
10116
10177
10240
10301
10237
10173
10109
10045
9981
9917
9853
9789
9725
9661
9597
9533
9469
9405
9341
9277
9213
9160
9101
9101
9143
9198
9261
9324
9387
9450
9456
9392
9328
9264
9200
9148
9158
9172
9181
9201
9236
9279
9315
9336
9355
9402
9465
9528
9591
9654
9717
9780
9843
9906
9969
10032
10095
10158
10221
10284
10347
10410
10473
10536
10599
10662
10725
10788
10851
10914
10977
11040
11103
11166
11229
11292
11355
11418
11481
11544
11607
11670
11733
11796
11859
11922
11985
12048
12111
12174
12237
12300
12363
12426
12489
12552
12615
12678
12741
12804
12867
12930
12993
13056
13086
13101
13115
13124
13129
13112
13060
12996
12932
12868
12804
12740
12676
12612
12548
12484
12420
12356
12292
12228
12164
12100
12036
11972
11908
11844
11780
11716
11652
11588
11524
11587
11650
11713
11776
11839
11833
11769
11705
11641
11577
11513
11449
11385
11321
11257
11193
11129
11065
11001
10937
10873
10809
10745
10681
10617
10553
10489
10425
10361
10297
10233
10169
10105
10041
9977
9913
9849
9785
9721
9657
9593
9529
9465
9401
9337
9273
9209
9145
9081
9017
9014
9019
9034
9050
9060
9067
9067
9080
9102
9119
9117
9095
9075
9069
9055
9028
8997
8954
8896
8832
8813
8749
8713
8676
8643
8628
8624
8635
8639
8599
8535
8471
8407
8359
8326
8283
8226
8162
8114
8065
8035
8021
8010
8008
8057
8068
8044
7980
7926
7890
7864
7835
7855
7890
7897
7855
7793
7743
7743
7745
7735
7713
7678
7637
7593
7548
7512
7479
7447
7423
7401
7384
7360
7335
7307
7294
7285
7286
7316
7379
7425
7420
7396
7390
7407
7405
7392
7434
7497
7560
7623
7686
7749
7812
7875
7938
8001
8064
8127
8190
8126
8062
7998
7934
7870
7806
7742
7728
7738
7744
7741
7732
7734
7747
7769
7784
7818
7826
7819
7848
7860
7796
7732
7668
7604
7540
7476
7412
7348
7324
7304
7293
7266
7238
7218
7194
7172
7149
7130
7113
7102
7089
7076
7065
7049
7034
7025
7013
6999
6985
6971
6952
6936
6918
6894
6868
6849
6831
6814
6800
6787
6776
6771
6761
6754
6743
6733
6726
6716
6710
6699
6693
6680
6671
6665
6654
6645
6641
6639
6636
6632
6624
6609
6594
6579
6567
6555
6556
6550
6538
6527
6517
6508
6502
6493
6478
6457
6437
6416
6398
6384
6370
6361
6356
6350
6345
6337
6332
6326
6321
6316
6309
6301
6296
6290
6283
6281
6277
6276
6275
6275
6279
6281
6285
6292
6302
6310
6319
6332
6346
6355
6370
6383
6399
6406
6413
6416
6414
6411
6406
6403
6399
6399
6408
6413
6414
6407
6404
6396
6372
6337
6322
6318
6324
6324
6324
6318
6307
6297
6298
6300
6305
6313
6316
6325
6334
6341
6340
6324
6319
6315
6323
6329
6340
6345
6351
6369
6385
6385
6371
6355
6340
6334
6332
6306
6261
6207
6209
6221
6214
6196
6180
6176
6173
6170
6172
6172
6166
6160
6157
6157
6150
6138
6132
6126
6120
6110
6111
6108
6111
6116
6114
6111
6105
6104
6107
6113
6116
6117
6117
6115
6114
6111
6109
6107
6099
6086
6075
6069
6070
6078
6090
6107
6118
6121
6125
6134
6141
6157
6169
6171
6171
6155
6146
6143
6148
6160
6169
6178
6197
6215
6229
6247
6265
6273
6273
6272
6264
6249
6234
6222
6205
6197
6191
6189
6189
6182
6181
6182
6196
6229
6273
6336
6399
6462
6525
6588
6651
6714
6777
6840
6903
6966
7029
7092
7155
7163
7099
7035
6971
6907
6843
6779
6715
6693
6685
6669
6652
6635
6614
6602
6590
6597
6636
6671
6668
6661
6653
6644
6617
6587
6586
6601
6618
6599
6535
6487
6542
6605
6659
6627
6570
6537
6555
6581
6586
6571
6556
6561
6601
6664
6715
6725
6725
6724
6721
6710
6718
6739
6758
6734
6697
6691
6754
6805
6866
6922
6961
7009
7072
7135
7198
7261
7324
7387
7450
7513
7576
7639
7702
7765
7828
7891
7954
8017
8080
8143
8206
8269
8332
8395
8458
8521
8584
8647
8710
8773
8836
8899
8962
9025
9088
9151
9214
9277
9340
9403
9402
9363
9299
9235
9171
9107
9043
8979
8915
8851
8787
8723
8659
8595
8531
8467
8403
8339
8275
8211
8147
8083
8019
7955
7891
7827
7763
7699
7635
7571
7507
7443
7379
7315
7258
7255
7257
7264
7265
7250
7239
7240
7244
7244
7227
7207
7187
7170
7158
7154
7174
7215
7272
7303
7320
7345
7353
7378
7425
7467
7440
7384
7367
7393
7423
7455
7493
7499
7465
7413
7357
7321
7295
7267
7240
7215
7206
7202
7202
7213
7220
7207
7187
7160
7149
7154
7148
7126
7116
7127
7144
7145
7138
7136
7128
7124
7119
7117
7099
7083
7071
7066
7060
7056
7052
7058
7062
7071
7077
7082
7089
7101
7110
7109
7111
7129
7139
7147
7157
7171
7200
7246
7298
7361
7424
7487
7550
7613
7676
7739
7750
7745
7734
7720
7710
7695
7669
7627
7587
7553
7516
7475
7434
7388
7349
7285
7237
7300
7363
7426
7489
7552
7615
7678
7741
7804
7867
7930
7993
8056
8119
8182
8245
8308
8371
8434
8497
8560
8623
8686
8749
8812
8875
8938
9001
9064
9127
9190
9253
9316
9379
9442
9505
9568
9631
9694
9757
9820
9883
9946
10009
10072
10135
10198
10261
10324
10387
10450
10513
10576
10639
10702
10765
10828
10891
10954
11017
11080
11143
11206
11269
11332
11395
11458
11521
11558
11494
11430
11457
11446
11430
11409
11358
11294
11230
11166
11102
11038
10974
10910
10846
10782
10718
10693
10629
10565
10501
10437
10373
10309
10245
10181
10117
10053
9989
9925
9861
9797
9733
9669
9605
9541
9477
9413
9349
9285
9221
9157
9093
9029
8965
8981
8991
9022
9055
9101
9154
9209
9252
9288
9322
9341
9339
9354
9387
9410
9425
9434
9455
9473
9506
9543
9566
9576
9588
9595
9597
9599
9607
9613
9618
9611
9608
9613
9606
9581
9644
9707
9770
9833
9896
9959
10022
10085
10148
10211
10274
10337
10400
10463
10526
10589
10652
10715
10778
10841
10904
10967
11030
11093
11156
11219
11282
11345
11408
11471
11534
11597
11660
11723
11786
11849
11912
11975
12038
12101
12164
12227
12290
12353
12416
12479
12542
12605
12668
12731
12794
12857
12920
12983
13046
13109
13172
13235
13298
13361
13424
13487
13550
13613
13676
13739
13802
13865
13928
13991
14054
14117
14180
14243
14306
14369
14432
14495
14558
14621
14684
14747
14810
14873
14936
14999
15062
15125
15188
15251
15314
15377
15440
15503
15566
15629
15692
15755
15818
15881
15944
16007
16070
16133
16196
16259
16322
16385
16448
16511
16574
16637
16700
16763
16826
16889
16952
17015
17078
17141
17204
17267
17330
17393
17456
17519
17582
17645
17708
17771
17834
17897
17960
18023
18086
18149
18212
18275
18338
18401
18464
18527
18590
18653
18716
18779
18842
18905
18968
19031
19094
19157
19220
19283
19346
19409
19472
19535
19598
19661
19724
19787
19850
19913
19976
20039
20102
20165
20194
20196
20192
20195
20258
20321
20327
20327
20343
20342
20338
20334
20328
20321
20313
20304
20290
20273
20251
20222
20184
20130
20066
20002
19938
19874
19810
19746
19682
19618
19554
19490
19426
19362
19298
19234
19170
19106
19042
18978
18914
18850
18786
18722
18658
18594
18530
18466
18402
18338
18274
18210
18146
18082
18018
17954
17890
17826
17762
17698
17634
17570
17506
17442
17378
17314
17250
17186
17122
17058
16994
16930
16866
16802
16738
16674
16610
16546
16482
16418
16354
16290
16226
16162
16098
16034
15970
15906
15842
15778
15714
15650
15586
15522
15458
15394
15330
15266
15202
15138
15074
15010
14946
14882
14818
14754
14690
14626
14562
14498
14434
14370
14306
14242
14178
14114
14050
13986
13922
13858
13794
13730
13666
13602
13538
13474
13410
13346
13282
13218
13154
13090
13026
12962
12898
12834
12770
12706
12642
12578
12514
12450
12386
12322
12258
12194
12130
12066
12002
11938
11874
11810
11746
11682
11618
11554
11490
11426
11362
11298
11234
11170
11106
11042
10978
10914
10850
10786
10722
10658
10594
10530
10466
10402
10338
10274
10210
10146
10082
10018
9954
9890
9826
9762
9698
9634
9570
9506
9442
9378
9314
9250
9186
9122
9058
8994
8930
8866
8802
8738
8674
8610
8546
8482
8418
8354
8290
8226
8162
8098
8034
7970
7906
7842
7778
7808
7871
7929
7982
8033
8073
8096
8122
8121
8106
8095
8083
8062
8059
8040
8044
8096
8159
8222
8285
8348
8411
8474
8537
8600
8663
8726
8789
8852
8915
8978
9041
9104
9167
9230
9293
9356
9419
9482
9545
9608
9671
9734
9775
9783
9799
9825
9867
9925
9988
10051
10114
10177
10240
10303
10239
10175
10111
10106
10126
10144
10148
10166
10168
10104
10055
10011
9947
9904
9849
9823
9859
9896
9866
9802
9770
9774
9796
9859
9922
9928
9928
9991
10054
10117
10180
10243
10306
10349
10412
10475
10538
10601
10664
10727
10790
10846
10860
10884
10910
10912
10914
10934
10953
11007
11070
11133
11196
11259
11322
11385
11448
11511
11574
11637
11700
11763
11826
11889
11952
12015
12078
12141
12200
12136
12072
12008
12071
12089
12062
12040
12020
11988
11957
11931
11905
11885
11871
11860
11858
11867
11877
11828
11764
11700
11636
11572
11508
11444
11380
11316
11252
11188
11124
11060
10996
10932
10868
10804
10740
10676
10612
10548
10552
10573
10635
10571
10507
10443
10379
10315
10259
10278
10283
10284
10283
10299
10352
10401
10441
10495
10471
10407
10343
10279
10215
10151
10087
10065
10057
10048
10042
10002
9940
9891
9883
9901
9919
9918
9910
9917
9980
10043
10106
10169
10232
10295
10358
10375
10337
10277
10274
10288
10331
10386
10423
10454
10517
10573
10509
10572
10635
10571
10507
10448
10390
10365
10348
10324
10320
10298
10254
10195
10133
10098
10087
10106
10074
10025
10004
9966
9940
9934
9873
9811
9785
9775
9772
9770
9771
9788
9787
9795
9808
9871
9934
9997
10060
10123
10186
10122
10058
9994
9930
9866
9802
9738
9674
9610
9546
9482
9418
9399
9395
9395
9394
9396
9386
9390
9401
9410
9412
9406
9403
9404
9401
9394
9383
9380
9372
9366
9365
9359
9348
9334
9330
9329
9330
9334
9336
9346
9354
9407
9470
9533
9593
9624
9671
9724
9787
9812
9826
9831
9853
9904
9958
10021
10084
10147
10210
10273
10336
10399
10462
10525
10588
10651
10714
10777
10840
10834
10800
10736
10672
10639
10625
10615
10600
10564
10509
10476
10474
10456
10431
10402
10389
10389
10392
10388
10385
10362
10338
10333
10354
10394
10417
10480
10543
10606
10669
10732
10775
10767
10792
10855
10918
10981
11044
11107
11170
11233
11296
11299
11283
11262
11215
11151
11087
11023
10959
10895
10831
10767
10703
10639
10647
10672
10731
10794
10857
10920
10983
11046
11109
11172
11235
11298
11245
11181
11117
11053
10989
10925
10861
10797
10733
10669
10605
10541
10477
10413
10349
10285
10221
10157
10093
10029
9965
9913
9954
9999
10047
10076
10054
10025
10014
10041
10040
10009
9971
9937
9874
9810
9778
9782
9786
9786
9791
9792
9784
9763
9731
9689
9641
9577
9513
9449
9512
9537
9568
9601
9639
9672
9662
9598
9534
9470
9406
9342
9278
9214
9150
9086
9149
9212
9275
9338
9401
9464
9527
9590
9653
9716
9779
9842
9905
9968
10031
10094
10157
10220
10283
10346
10409
10472
10535
10598
10661
10724
10787
10850
10913
10976
11039
11102
11165
11228
11291
11354
11417
11480
11543
11606
11669
11605
11541
11477
11413
11349
11285
11221
11157
11093
11029
10965
10901
10837
10773
10709
10645
10581
10517
10539
10600
10663
10726
10789
10852
10915
10978
11041
11104
11167
11230
11293
11356
11419
11482
11545
11608
11671
11734
11797
11860
11923
11986
11997
11984
11983
11960
11903
11845
11847
11845
11840
11787
11723
11659
11595
11531
11467
11403
11339
11275
11211
11147
11083
11019
10955
10891
10827
10763
10826
10889
10952
11015
11078
11141
11204
11267
11330
11393
11456
11519
11582
11645
11708
11771
11834
11781
11717
11653
11589
11525
11461
11397
11333
11269
11205
11141
11077
11013
10949
10885
10821
10757
10693
10629
10565
10501
10437
10373
10309
10245
10181
10117
10053
9989
9925
9861
9797
9733
9714
9705
9693
9688
9683
9678
9679
9666
9646
9633
9625
9626
9617
9602
9580
9568
9566
9559
9546
9531
9526
9522
9506
9476
9456
9504
9511
9517
9515
9517
9514
9512
9502
9490
9462
9435
9417
9400
9373
9348
9311
9276
9237
9201
9170
9144
9119
9085
9042
8997
8961
8930
8916
8913
8900
8896
8914
8937
8933
8926
8913
8910
8903
8885
8845
8814
8834
8820
8796
8764
8748
8753
8776
8791
8778
8757
8741
8722
8686
8654
8639
8658
8646
8598
8534
8470
8406
8342
8317
8380
8384
8353
8292
8251
8237
8221
8200
8212
8239
8283
8335
8388
8425
8454
8461
8456
8435
8447
8484
8534
8597
8660
8723
8786
8849
8912
8951
8938
8921
8984
9039
9025
9018
8967
8913
8851
8787
8723
8659
8595
8540
8499
8466
8423
8400
8385
8367
8376
8431
8494
8557
8620
8683
8746
8788
8737
8800
8863
8926
8989
9052
9026
8962
8898
8861
8878
8923
8986
9049
9112
9175
9238
9301
9364
9300
9236
9172
9108
9044
8980
9034
9026
8978
8969
9007
9070
9133
9157
9104
9056
9015
9047
9110
9173
9236
9299
9362
9425
9488
9551
9614
9677
9740
9803
9739
9675
9611
9547
9483
9419
9355
9291
9227
9174
9237
9300
9363
9426
9489
9552
9615
9678
9626
9592
9552
9517
9552
9615
9602
9538
9474
9410
9346
9282
9218
9154
9090
9026
8962
8898
8834
8770
8706
8642
8646
8674
8695
8732
8764
8786
8773
8754
8731
8717
8717
8726
8726
8710
8692
8663
8649
8637
8640
8647
8659
8683
8719
8748
8747
8748
8739
8724
8704
8673
8648
8621
8596
8577
8569
8570
8565
8563
8573
8583
8586
8591
8603
8629
8655
8692
8731
8760
8806
8858
8892
8923
8947
8960
8950
8958
8968
8983
8981
8966
8953
8943
8932
8931
8930
8930
8925
8912
8901
8896
8882
8879
8888
8902
8921
8930
8932
8920
8901
8885
8857
8838
8812
8789
8768
8746
8746
8748
8735
8719
8709
8702
8708
8717
8723
8729
8721
8689
8668
8621
8573
8526
8492
8430
8376
8352
8330
8299
8273
8229
8200
8180
8183
8175
8172
8179
8194
8213
8218
8222
8233
8244
8250
8236
8220
8240
8285
8316
8312
8307
8323
8349
8363
8354
8355
8373
8386
8400
8398
8393
8389
8395
8393
8390
8392
8398
8404
8409
8402
8400
8413
8420
8418
8420
8431
8422
8385
8369
8391
8392
8374
8342
8302
8257
8205
8165
8119
8107
8103
8077
8046
8024
8026
8043
8073
8084
8074
8069
8070
8072
8084
8084
8074
8095
8121
8159
8210
8270
8333
8396
8459
8508
8544
8589
8627
8630
8598
8547
8488
8424
8360
8297
8240
8177
8126
8092
8075
8059
8042
8020
8012
8011
8017
8014
7998
7982
7966
7959
7966
7977
7996
8034
8082
8127
8158
8183
8202
8198
8173
8142
8098
8065
8038
8002
7968
7942
7925
7920
7912
7909
7912
7909
7899
7885
7870
7857
7844
7828
7812
7802
7797
7788
7786
7782
7763
7747
7744
7742
7740
7725
7713
7694
7671
7648
7625
7583
7535
7530
7524
7529
7536
7535
7529
7515
7506
7498
7488
7475
7467
7461
7456
7448
7446
7440
7437
7435
7434
7441
7433
7434
7432
7425
7418
7405
7394
7376
7356
7335
7317
7304
7296
7286
7278
7274
7281
7298
7322
7341
7353
7355
7353
7355
7357
7359
7360
7360
7361
7362
7355
7351
7337
7326
7319
7309
7296
7285
7272
7265
7260
7257
7253
7250
7247
7245
7244
7247
7242
7242
7243
7243
7239
7240
7242
7244
7244
7244
7241
7241
7237
7236
7229
7224
7215
7204
7201
7192
7186
7173
7170
7162
7155
7147
7142
7137
7133
7129
7126
7119
7120
7112
7108
7102
7100
7095
7090
7086
7078
7073
7067
7064
7059
7055
7051
7047
7040
7037
7039
7035
7028
7024
7025
7024
7026
7025
7023
7026
7024
7019
7014
7016
7010
7006
7001
6996
6995
6989
6986
6979
6970
6966
6962
6962
6960
6960
6950
6935
6923
6905
6896
6885
6880
6878
6884
6889
6899
6908
6912
6907
6905
6904
6908
6917
6923
6931
6945
6951
6946
6938
6932
6937
6948
6951
6955
6948
6943
6940
6940
6941
6936
6923
6904
6892
6885
6876
6869
6864
6859
6857
6856
6857
6859
6860
6859
6855
6862
6868
6871
6872
6877
6878
6889
6903
6920
6937
6946
6956
6988
7041
7094
7144
7163
7175
7174
7157
7139
7114
7100
7087
7071
7049
7041
7042
7055
7075
7107
7137
7165
7191
7215
7246
7279
7307
7319
7317
7295
7264
7231
7207
7185
7170
7147
7131
7119
7106
7102
7099
7105
7111
7115
7118
7120
7121
7124
7128
7131
7140
7144
7148
7155
7168
7179
7188
7196
7210
7219
7224
7234
7243
7249
7256
7259
7262
7261
7261
7259
7248
7241
7231
7219
7208
7195
7183
7173
7165
7166
7168
7169
7175
7190
7211
7238
7266
7297
7339
7401
7457
7511
7553
7611
7674
7737
7800
7863
7897
7935
7984
8025
8040
8046
8046
8031
7999
7980
7990
8001
8008
8010
8020
8031
8040
8042
8040
8035
8029
8021
8016
8009
8004
7990
7981
7968
7955
7939
7920
7900
7878
7862
7846
7824
7797
7775
7752
7731
7717
7704
7693
7687
7674
7665
7659
7653
7652
7644
7642
7635
7629
7621
7619
7613
7607
7601
7596
7586
7581
7573
7561
7553
7544
7534
7524
7520
7509
7502
7497
7490
7484
7476
7471
7465
7458
7456
7450
7445
7440
7437
7432
7428
7425
7417
7415
7412
7406
7403
7401
7395
7393
7389
7385
7381
7380
7376
7374
7370
7367
7366
7361
7358
7355
7353
7346
7343
7335
7328
7322
7318
7310
7303
7300
7295
7285
7284
7278
7274
7274
7270
7270
7265
7260
7263
7256
7256
7254
7248
7246
7242
7242
7237
7234
7231
7228
7228
7223
7223
7220
7219
7216
7216
7213
7212
7213
7207
7205
7204
7203
7202
7201
7197
7192
7188
7184
7179
7173
7169
7160
7154
7147
7144
7139
7134
7132
7126
7126
7122
7118
7117
7115
7112
7109
7110
7106
7106
7103
7101
7100
7097
7094
7094
7092
7089
7088
7091
7086
7084
7080
7079
7080
7076
7078
7075
7074
7070
7069
7071
7069
7067
7063
7060
7053
7048
7043
7039
7032
7029
7028
7020
7018
7011
7008
7003
7003
6997
6998
6995
6990
6991
6987
6986
6983
6982
6978
6977
6972
6973
6973
6971
6970
6969
6967
6967
6960
6964
6959
6961
6958
6959
6955
6953
6954
6953
6950
6954
6958
6963
6960
6948
6924
6901
6892
6894
6904
6909
6909
6909
6913
6912
6907
6904
6898
6897
6902
6910
6914
6906
6901
6892
6887
6883
6873
6863
6848
6830
6808
6784
6776
6777
6789
6803
6821
6834
6845
6878
6941
7000
7063
7126
7189
7252
7315
7362
7388
7412
7437
7456
7470
7473
7473
7478
7493
7518
7543
7558
7568
7590
7603
7617
7624
7631
7646
7649
7645
7636
7623
7599
7575
7543
7510
7479
7443
7412
7373
7348
7330
7315
7306
7298
7287
7277
7269
7259
7250
7239
7229
7221
7210
7202
7197
7187
7178
7169
7158
7150
7135
7128
7118
7109
7109
7112
7110
7105
7101
7099
7094
7082
7071
7067
7062
7063
7066
7062
7072
7084
7092
7096
7111
7128
7150
7177
7212
7257
7311
7374
7437
7500
7562
7622
7685
7748
7811
7874
7937
8000
8063
8126
8187
8217
8243
8280
8312
8321
8313
8312
8316
8316
8309
8293
8266
8225
8183
8142
8102
8070
8047
8036
8031
8032
8036
8039
8038
8019
7984
7920
7856
7795
7765
7743
7695
7670
7658
7646
7634
7629
7619
7609
7604
7641
7696
7725
7736
7748
7782
7810
7827
7840
7839
7825
7804
7789
7768
7743
7715
7688
7664
7648
7627
7605
7589
7574
7567
7555
7545
7543
7534
7528
7520
7512
7515
7510
7506
7502
7496
7490
7487
7485
7482
7479
7474
7470
7470
7465
7470
7472
7475
7476
7475
7479
7480
7478
7474
7467
7461
7456
7449
7445
7443
7439
7432
7436
7433
7435
7421
7413
7405
7386
7374
7374
7380
7385
7380
7375
7380
7387
7381
7376
7379
7371
7367
7363
7360
7360
7365
7364
7370
7380
7385
7392
7394
7400
7400
7401
7402
7405
7408
7416
7416
7420
7428
7435
7445
7439
7446
7442
7448
7445
7442
7443
7443
7445
7451
7451
7458
7463
7475
7482
7488
7489
7485
7484
7482
7487
7494
7504
7508
7512
7514
7513
7508
7508
7516
7523
7523
7527
7526
7530
7532
7546
7564
7575
7573
7567
7562
7557
7553
7547
7538
7529
7521
7520
7514
7509
7504
7492
7481
7464
7457
7447
7430
7416
7404
7388
7380
7371
7361
7355
7343
7341
7342
7343
7346
7354
7359
7366
7370
7374
7379
7375
7396
7437
7495
7541
7562
7566
7569
7576
7586
7590
7577
7566
7559
7551
7536
7523
7510
7490
7474
7461
7447
7436
7428
7410
7397
7387
7371
7354
7338
7324
7311
7302
7301
7307
7319
7320
7324
7333
7340
7343
7346
7350
7346
7358
7373
7378
7376
7367
7360
7356
7357
7360
7356
7364
7363
7363
7367
7369
7369
7357
7359
7372
7381
7391
7399
7417
7434
7453
7467
7475
7472
7474
7484
7492
7508
7517
7514
7515
7518
7517
7511
7504
7506
7501
7499
7499
7497
7499
7497
7505
7512
7521
7531
7540
7552
7558
7566
7569
7578
7584
7586
7587
7589
7591
7590
7594
7596
7597
7601
7600
7603
7602
7607
7605
7598
7595
7588
7584
7575
7568
7558
7552
7545
7539
7549
7574
7616
7668
7710
7715
7672
7690
7748
7811
7874
7937
8000
8063
8126
8189
8252
8315
8297
8235
8209
8191
8173
8157
8137
8110
8070
8034
8009
7990
7969
7948
7921
7895
7868
7831
7797
7775
7762
7756
7747
7726
7698
7669
7636
7611
7601
7586
7576
7570
7579
7573
7556
7536
7540
7525
7511
7514
7520
7522
7513
7495
7485
7487
7497
7521
7584
7647
7710
7772
7780
7798
7845
7908
7971
8034
8097
8160
8223
8286
8349
8412
8475
8538
8601
8664
8641
8596
8557
8537
8528
8533
8522
8509
8481
8442
8427
8439
8466
8512
8548
8579
8570
8548
8541
8525
8484
8452
8439
8424
8396
8354
8301
8328
8391
8443
8483
8498
8500
8503
8528
8591
8654
8707
8770
8833
8896
8959
8961
8904
8852
8816
8808
8798
8775
8742
8706
8657
8613
8601
8586
8572
8577
8594
8617
8630
8648
8659
8685
8728
8791
8854
8917
8980
9043
9106
9169
9232
9295
9358
9421
9484
9547
9610
9673
9736
9672
9608
9544
9480
9416
9352
9288
9224
9160
9096
9032
8968
8904
8840
8776
8712
8648
8584
8520
8456
8392
8328
8264
8200
8136
8079
8070
8063
8056
8049
8038
8035
8032
8025
8017
8024
8027
8031
8027
8022
8021
8018
8041
8059
8065
8063
8063
8059
8044
8032
8017
8004
7986
7968
7947
7933
7921
7911
7899
7892
7876
7858
7848
7835
7820
7808
7796
7785
7776
7764
7753
7742
7737
7727
7722
7715
7709
7704
7702
7695
7690
7689
7689
7694
7684
7667
7658
7660
7668
7675
7680
7677
7672
7668
7670
7672
7676
7687
7695
7699
7702
7711
7723
7733
7742
7741
7738
7735
7724
7717
7699
7686
7675
7667
7654
7645
7636
7625
7609
7594
7596
7600
7613
7612
7609
7610
7612
7604
7604
7608
7618
7633
7654
7681
7695
7713
7722
7725
7724
7728
7736
7738
7744
7751
7764
7784
7806
7830
7855
7871
7879
7903
7918
7931
7936
7935
7935
7932
7928
7921
7912
7904
7895
7883
7876
7865
7855
7848
7842
7838
7833
7830
7823
7820
7821
7816
7814
7812
7805
7797
7787
7778
7770
7763
7747
7735
7730
7722
7718
7710
7708
7708
7705
7704
7697
7694
7690
7685
7677
7674
7663
7658
7653
7646
7643
7638
7629
7621
7610
7600
7597
7589
7592
7582
7579
7570
7557
7553
7552
7547
7550
7550
7549
7544
7540
7540
7541
7541
7544
7544
7547
7547
7546
7544
7538
7537
7538
7537
7541
7541
7538
7541
7533
7526
7519
7515
7508
7501
7491
7480
7476
7468
7465
7458
7455
7452
7450
7450
7444
7442
7437
7432
7431
7429
7425
7418
7418
7417
7411
7410
7409
7403
7401
7399
7396
7391
7390
7385
7383
7381
7379
7375
7370
7365
7363
7358
7357
7349
7340
7331
7318
7305
7291
7281
7269
7262
7251
7244
7238
7232
7233
7235
7239
7237
7235
7230
7222
7211
7198
7188
7185
7190
7193
7195
7198
7204
7205
7199
7180
7171
7164
7169
7178
7195
7229
7292
7355
7418
7481
7544
7607
7670
7733
7796
7859
7922
7985
8048
8099
8102
8112
8146
8198
8261
8324
8387
8450
8513
8576
8600
8536
8472
8408
8344
8280
8216
8152
8088
8024
7967
7945
7929
7916
7916
7910
7871
7829
7825
7863
7889
7848
7818
7788
7762
7755
7758
7780
7796
7787
7766
7731
7710
7707
7703
7700
7690
7687
7684
7685
7679
7665
7649
7631
7636
7641
7633
7642
7654
7651
7607
7561
7538
7557
7578
7593
7567
7535
7503
7475
7458
7442
7431
7386
7400
7451
7471
7507
7553
7593
7627
7645
7647
7650
7655
7658
7662
7660
7652
7655
7646
7636
7627
7614
7611
7610
7607
7607
7606
7604
7597
7592
7576
7558
7532
7503
7480
7458
7428
7405
7383
7375
7373
7366
7355
7341
7337
7329
7335
7354
7374
7383
7389
7392
7374
7342
7302
7267
7245
7232
7217
7199
7180
7166
7136
7120
7118
7121
7125
7122
7105
7090
7086
7065
7064
7077
7103
7126
7146
7177
7199
7220
7219
7217
7199
7187
7177
7174
7166
7167
7169
7170
7187
7222
7277
7331
7352
7368
7407
7351
7298
7321
7352
7364
7369
7336
7331
7363
7388
7364
7370
7377
7391
7410
7420
7404
7343
7279
7215
7151
7102
7099
7100
7101
7107
7115
7125
7145
7171
7201
7222
7239
7256
7276
7284
7260
7248
7267
7330
7393
7416
7384
7393
7419
7432
7437
7430
7441
7504
7567
7630
7693
7756
7745
7688
7647
7583
7519
7506
7495
7498
7512
7544
7580
7608
7643
7676
7703
7727
7729
7728
7747
7775
7799
7826
7842
7862
7882
7888
7892
7886
7880
7875
7894
7929
7961
8000
7996
7990
7994
8031
8079
8111
8166
8190
8207
8194
8173
8143
8079
8015
7952
7894
7865
7864
7868
7857
7840
7828
7814
7787
7740
7688
7650
7643
7685
7748
7811
7874
7937
8000
8063
8126
8189
8252
8252
8188
8138
8074
8010
7946
7896
7868
7829
7795
7767
7741
7732
7750
7813
7876
7939
7943
7963
7917
7853
7789
7725
7661
7675
7690
7696
7695
7690
7702
7719
7720
7716
7746
7809
7845
7819
7755
7701
7681
7719
7782
7843
7852
7901
7949
7952
7949
7966
7982
7987
7992
8001
8022
8021
7985
7930
7875
7815
7780
7756
7732
7732
7733
7731
7706
7681
7658
7656
7667
7675
7702
7723
7731
7720
7707
7686
7714
7777
7840
7903
7966
7974
7968
7991
7995
8002
8038
8094
8157
8220
